##TITLE=
##JCAMP-DX=4.24
##DATA TYPE=Cyclic voltammetry
##ORIGIN=
##OWNER=
##XUNITS=I [mA]
##YUNITS=Ewe [V]
##FIRSTX=-0.00048626037
##LASTX=0.99969316
##FIRSTY=-0.03112004904283402
##LASTY=0.04641134372731254
##NPOINTS=2137
##PEAK TABLE=(XY..XY)
0.54231662 0.0002837319916579872
0.54286277 0.0002609022971032321
0.54385138 0.0006176312807105577
0.54489839 0.0009240318610055608
0.54586691 0.001192664729690785
0.54686397 0.001453401553893251
0.54791099 0.0016847709962854
0.54896641 0.001922904493262143
0.54984796 0.002148867150531773
0.55084401 0.002374617455441499
0.55193341 0.002579972078011548
0.55289346 0.002794030916144649
0.55387139 0.003008209882359045
0.55491424 0.003216954089010765
0.55591029 0.003419207100806593
0.55687565 0.00363526791685824
0.55786949 0.003842329084161794
0.55886555 0.004050304446839931
0.55996352 0.004268570707305748
0.56090754 0.004480271951858114
0.56186557 0.004692778254846222
0.56293577 0.004915698903561056
0.56390208 0.005125552899698979
0.56497353 0.00534504385844535
0.56595576 0.005569073502556449
0.5669148 0.005793400711910299
0.5679341 0.00602284803608201
0.56893229 0.00625071687803333
0.56988806 0.00648506694334277
0.57091379 0.006719395065576668
0.57192796 0.006955799902546772
0.57292724 0.007195913314515384
0.5739032 0.007436544942013124
0.57492459 0.007676005770917982
0.57590264 0.00792609257769071
0.57688498 0.008163108337612371
0.57789063 0.00840752179081189
0.57892174 0.008667803377546928
0.57986259 0.008922475416006341
0.58092862 0.0091847308754546
0.58188337 0.009441187568882015
0.5835833 0.009812590722503962
0.58541888 0.01034352386987956
0.58641821 0.01063165974321439
0.58738238 0.01092694807690955
0.58841771 0.01121373936136175
0.58939791 0.01150771123340953
0.59041411 0.01176892349111675
0.59137732 0.01204862348580114
0.59238499 0.01234644114123919
0.5933345 0.01265418803490726
0.59439939 0.01293623168021443
0.59542841 0.01324156416214664
0.59641916 0.01354120226298822
0.59736747 0.01382826890686478
0.59841764 0.01413033830532291
0.59944344 0.01443929563053345
0.60033447 0.01473831315454521
0.60141754 0.0150327112747215
0.60240299 0.01533211071687726
0.60340434 0.01563929889461074
0.60440141 0.01595087567855252
0.60542625 0.01626474030490505
0.60638833 0.01658815391419927
0.60741407 0.0169101089074199
0.60842818 0.01723913835465082
0.60938495 0.01756280877452809
0.61042464 0.01789662017836238
0.61141634 0.01823648795834745
0.61241668 0.0185714583478532
0.61340111 0.01889493482950559
0.61438441 0.01926338994882021
0.61540067 0.01958420461839225
0.61638188 0.0198982548237028
0.6174193 0.02025773438961359
0.61839634 0.02061198021531013
0.61943477 0.02097681878755492
0.62039483 0.02133356580614218
0.62134737 0.02167571526499371
0.62238693 0.02199715770742237
0.62341374 0.02234162372123034
0.62441719 0.02269022945418131
0.62542498 0.02303290971030955
0.62638068 0.02336010831964414
0.62741822 0.02369225772337016
0.6284163 0.02401960663458655
0.62940824 0.02434418857996612
0.6303767 0.02469857447431428
0.6313737 0.02502841736390521
0.63240176 0.02537771201686062
0.63340831 0.02572625331716456
0.63441616 0.02606741326033241
0.63540584 0.02642089002862735
0.63637853 0.02676082052251647
0.63740003 0.02711083986408402
0.63843006 0.02746049508277795
0.63941348 0.02781306176459331
0.64037764 0.02815635086800386
0.64144164 0.02850675997938709
0.64245045 0.02883949221157112
0.64342523 0.02920433066255013
0.64446068 0.02954545389446947
0.64541739 0.02988993073651924
0.64641345 0.03023953361197423
0.64745301 0.03058343363065634
0.64840883 0.0309340187296685
0.64942396 0.03128390351452665
0.65043908 0.03162646899969934
0.65146387 0.03196625553472487
0.65246195 0.03231741605041971
0.65339655 0.03264904445515843
0.65442657 0.03298980495633785
0.65540558 0.03331375881680303
0.65643573 0.03364943938342757
0.6574381 0.03398795506735858
0.65841192 0.03430834661486082
0.65942389 0.03464504749475364
0.66039866 0.03497179576920154
0.6614033 0.03529239873427714
0.66234946 0.03562751821138799
0.66335195 0.03594527312735507
0.66445726 0.03626286905879772
0.66542786 0.03658576354306836
0.66646534 0.03688439991674397
0.66742313 0.03716972750650432
0.66838634 0.03749062855624493
0.66939622 0.03779248858983117
0.67035091 0.03809595158802259
0.67140216 0.03838675997232932
0.67238963 0.038686602437843
0.67339969 0.03899110134484049
0.67445922 0.03927621371824186
0.67541724 0.03956263567346879
0.67643231 0.03983662217312184
0.67743045 0.04011911812833407
0.67839587 0.04039024341424624
0.67941099 0.04065656509677273
0.68039429 0.04090677921906008
0.68142962 0.04117366549326107
0.68242353 0.0414305808856929
0.68345362 0.04168295340625461
0.68445814 0.04192457428952284
0.6854341 0.04217137506283419
0.68642372 0.04240712231775334
0.68743891 0.04264188644851347
0.68840849 0.04287018409943122
0.68938226 0.04309148275125263
0.69045371 0.04328888517920859
0.69144654 0.04351108444583002
0.69240236 0.04370107108520133
0.69341856 0.04389873441929637
0.69444114 0.04409707569155008
0.69534069 0.04428248469614328
0.69642895 0.04445023159173128
0.69738376 0.04463315845350768
0.6984275 0.04478912055492411
0.69942254 0.04495330953957616
0.70043451 0.04509828965011488
0.70137429 0.04524805043992183
0.70239592 0.04537419625234615
0.70343852 0.04550435838043798
0.7044304 0.04562374641278055
0.70544988 0.04573407290930231
0.70636851 0.04582680827136071
0.70741862 0.04593631256850352
0.70841151 0.04602224444129732
0.70940876 0.04610017819666412
0.71043861 0.04617506673417279
0.71141243 0.04623679213626852
0.7124669 0.04628472245207771
0.71342361 0.04634002575443863
0.71443146 0.04636282021399712
0.71543282 0.0463897985496764
0.71645331 0.04639923555653679
0.71739107 0.04641134372731254
0.71838379 0.04639955125619788
0.71944785 0.0463905490016463
0.72043437 0.04636387184533916
0.7214219 0.04634119589981235
0.72244662 0.04628497044581725
0.72344369 0.04624539526735644
0.72445464 0.04618464082401891
0.72541779 0.0461238636764596
0.72643942 0.04605553344784624
0.7274493 0.04597360695738151
0.72841126 0.04587838950101297
0.72948062 0.04578392680721455
0.73044801 0.04566229748242112
0.73139328 0.04553529291297331
0.73239982 0.04540811262106437
0.73337793 0.04526046616956611
0.73439199 0.04511646079804954
0.73539978 0.04496063401974337
0.73643726 0.04479438049990382
0.73745018 0.04462050503611381
0.73842406 0.04444410534860155
0.73945397 0.04426030325056596
0.74040771 0.04406744774961324
0.7414462 0.04386479095167822
0.74243367 0.04366892057522709
0.74342668 0.04345327933293053
0.7444725 0.04323239201201234
0.74540186 0.04301352521805601
0.74643391 0.04278881926762151
0.74740982 0.04255623587394264
0.7484017 0.04232490040077333
0.74942738 0.04207874712301429
0.75047016 0.04183601296325751
0.75145984 0.04159229887106153
0.75246328 0.04135364302459924
0.75344145 0.04110456751853553
0.75444698 0.04086440699110316
0.75543362 0.04062162264017394
0.75640416 0.04037904748757788
0.75739491 0.04013071942932199
0.75844514 0.03989531727792295
0.75941461 0.03964868324692383
0.76040334 0.03941446404981741
0.76143539 0.03918054759075568
0.76246333 0.03894389853424735
0.76345301 0.03870479696262114
0.7644735 0.03847806663058406
0.7654345 0.0382450265201949
0.76647305 0.03801677477571908
0.76745963 0.03779268882418463
0.76845247 0.0375674101621068
0.7694326 0.03735189275660888
0.77042979 0.03713544495339094
0.77141947 0.03691991816029072
0.77241343 0.03670700175765285
0.77342218 0.03650187379227848
0.77439755 0.03629588384148003
0.7754398 0.03608726221460123
0.77643687 0.03587976555637512
0.77742767 0.03569073747752971
0.77845758 0.03549399909873807
0.77942294 0.03530847970331613
0.780384 0.03511867404449753
0.78142458 0.03493536604219122
0.78242177 0.03474680772180588
0.78341675 0.03456806290907699
0.78441292 0.03439198682382183
0.78545451 0.03422379014470311
0.78640699 0.03405002227454046
0.7874043 0.03388622141533748
0.78846073 0.03371838740875122
0.78941756 0.03355917288960575
0.79045498 0.03340067472567587
0.79145849 0.03324096498545248
0.79243761 0.03308454684964901
0.79345274 0.03293208017324414
0.79438519 0.03278435815526698
0.79545981 0.03263311182510942
0.79642081 0.03249062748121423
0.7974593 0.03234741624975068
0.79840767 0.03221013113701121
0.79940903 0.03207267609023912
0.80041361 0.03193623914072924
0.80146915 0.0318025799998497
0.80242693 0.03167095996387714
0.80346441 0.03154284426192239
0.80445945 0.03141643005397388
0.80544686 0.03128854614462601
0.80647808 0.03116835903751464
0.80743802 0.03104110011352329
0.80841607 0.03092084402709988
0.80936873 0.03080127725843351
0.81040925 0.0306851498850545
0.81142759 0.03057200930521087
0.81238973 0.03046213425437205
0.81340492 0.0303497995369576
0.81449747 0.0302440788574232
0.81545961 0.03013787096844883
0.81648111 0.0300295769007386
0.81750154 0.02992496926809618
0.81845742 0.02982238889186803
0.81946719 0.02971836387587257
0.82049406 0.02961424393611703
0.82145828 0.0295160911951422
0.82247448 0.02941666450028113
0.82346743 0.02931960015687063
0.82446659 0.02922464935949787
0.82547444 0.02913250914651944
0.82646835 0.0290414295337138
0.82748878 0.02895143891833463
0.8284722 0.02886249097840232
0.82949466 0.02877333902223544
0.83052689 0.02868882938734408
0.83150762 0.02859753002444603
0.83249241 0.02851955244679827
0.83348644 0.02843511448655697
0.83450049 0.02835348697974249
0.8355062 0.02826847465864069
0.83650541 0.02818611284924881
0.83748031 0.02810575028060056
0.83857286 0.02802224894629851
0.83948082 0.02795060338555941
0.84053212 0.02786772058849862
0.84149635 0.02779965690246566
0.84250832 0.02772228166415724
0.84347576 0.02765139836669234
0.84449095 0.02757572064648328
0.84550291 0.02750457062696433
0.84649676 0.02743252814171793
0.84749717 0.02736546398146961
0.84851021 0.02729262542238264
0.84946483 0.02722276608175095
0.85049701 0.02715569283302305
0.85150582 0.02708641849555232
0.85250616 0.0270185136760121
0.85346711 0.0269532777310815
0.85445684 0.02689283706422431
0.8554911 0.02682401182796129
0.85649037 0.02676488759688161
0.85746002 0.02669929033759727
0.85853237 0.02664616884592562
0.85949558 0.02657960911488372
0.86048633 0.0265219149635717
0.86147815 0.0264570079016267
0.86250716 0.02639730037642746
0.8635031 0.02633810378029014
0.86450243 0.02627892671282306
0.86549312 0.02622337345059755
0.86648291 0.02616569780608793
0.86749381 0.02611303701511741
0.86852688 0.0260547163650498
0.86949974 0.02600229389887937
0.87050843 0.02594888975080621
0.87150675 0.02589819890110651
0.87251019 0.02584366454781659
0.87349564 0.02579253114042029
0.87449801 0.02574006467087503
0.87547922 0.02568825145944081
0.8765009 0.02563482112600471
0.87747991 0.02559051514253963
0.87852913 0.02553355624938075
0.87953895 0.02548683555182329
0.88048404 0.02543505969838911
0.88153106 0.02539091127174381
0.88249946 0.02533570470081441
0.8835094 0.02529826714211
0.88449806 0.02524630494008312
0.88552582 0.02520277702488891
0.8865273 0.02515663236651275
0.88751161 0.02511479265134159
0.88849288 0.02506901806433831
0.88948572 0.02502869079439232
0.89047331 0.02498757425766804
0.89147788 0.02494726769994798
0.89246863 0.02489904436839024
0.89349025 0.02485905202209129
0.89448512 0.02481308507978819
0.8954643 0.02477378267374464
0.89648902 0.02472917606873026
0.89746487 0.02469304009961588
0.89848012 0.02464943177862251
0.89949626 0.02460781441833312
0.90049344 0.02456903386660592
0.9015075 0.0245290327923916
0.90246117 0.02448833577606518
0.90350395 0.02445132398053024
0.9044925 0.02441363096295396
0.90548128 0.02437694596462997
0.90647304 0.02433779465758971
0.90750307 0.02430869696480742
0.90851074 0.02426414410648364
0.90951216 0.02423259542330114
0.9105072 0.02419531901573969
0.9115234 0.02416045550813173
0.91246217 0.02412048221837421
0.91349864 0.02408960725652937
0.91453385 0.02404660016569943
0.91554165 0.02401624668143793
0.9164899 0.02397852750113505
0.91751367 0.02394320521529558
0.91855198 0.02390876547886162
0.91955668 0.02387634324905877
0.92052615 0.02383672299684914
0.92152858 0.02381338916408531
0.92251736 0.02377598113283363
0.92352915 0.02374566207355305
0.92449337 0.02371249559089653
0.92554051 0.02368233790750518
0.92649615 0.02364675813846084
0.92749441 0.023620083166558
0.92847663 0.02358413084099703
0.92952895 0.02356376013712086
0.93048894 0.02352414873247563
0.93151784 0.02349971959645505
0.93245566 0.02346418491247781
0.93348354 0.02343679222071342
0.93456769 0.02340257372189726
0.93547988 0.02337429921964135
0.93648022 0.02334298054888173
0.93748164 0.02331196547311268
0.93854868 0.02328044396644052
0.93949825 0.02325517374912228
0.94052279 0.02321914263787528
0.94151247 0.02319460691230948
0.94250435 0.02316320143290801
0.9434728 0.02314119465881959
0.94447738 0.02310593440779483
0.94548827 0.02308183040359935
0.94651836 0.02305121185943596
0.94749951 0.02302937194084138
0.94850713 0.02300558209881071
0.94950765 0.02297649887946654
0.95051539 0.02295155614168226
0.95150506 0.02292391682729236
0.95251173 0.02289841749977012
0.953511 0.02286969056391785
0.95450699 0.02284132670643482
0.95555395 0.0228130685475967
0.95657557 0.02278429591549674
0.95754087 0.02275593999042436
0.95857191 0.02273304080719957
0.95954359 0.02270267863867856
0.960545 0.02268276730481178
0.96152413 0.02265289063183858
0.96256256 0.02262961096130321
0.96355438 0.02260321625120321
0.96456736 0.02258255500863834
0.96551782 0.02255363283459
0.96651614 0.02253585262709149
0.96752059 0.02250679844291886
0.9685083 0.02248395080742846
0.96951061 0.02245496705937616
0.97052586 0.02243342065937929
0.97149432 0.02240445358943877
0.97250938 0.02238265968238318
0.97349387 0.0223547629138921
0.97449517 0.0223325974463176
0.97553164 0.02230139388605801
0.97650319 0.0222824907557678
0.97754383 0.02225882236153776
0.97850287 0.02223815888929598
0.97950101 0.02221136790144068
0.98050654 0.02218699090008171
0.98148364 0.02216806086815072
0.98249018 0.0221441707625572
0.98352134 0.02212460299779201
0.98453534 0.02209685743340134
0.98552936 0.02207669985687581
0.98655081 0.02205300202412125
0.9875406 0.02202851156147925
0.98853248 0.02200652129734726
0.98951566 0.02198232972781022
0.99056286 0.02195534492461278
0.99151093 0.02193796261659985
0.99251562 0.02191451329983674
0.99351597 0.02189433710656075
0.99452358 0.02186531034951469
0.99552393 0.02184917458119651
0.99654227 0.02182738669216638
0.99753642 0.02180904165046142
0.99853766 0.02178553872605941
0.99927294 0.02184809604659677
0.99959767 0.02166292443871498
0.99969316 0.02176998058954877
0.99916458 0.02172620332567027
0.99812192 0.02166996947036964
0.99713218 0.02162718287662663
0.99609149 0.02158515758734822
0.99516869 0.02154698788945107
0.99415332 0.02150652028891883
0.99314046 0.0214653175628175
0.99213368 0.02142651977838897
0.99112403 0.0213896313378226
0.99013633 0.02135245152264058
0.98914987 0.02132014499673252
0.98807311 0.02128118779930654
0.98710984 0.02124835800269564
0.98610121 0.02121496276231488
0.98514217 0.02118442322373287
0.98410785 0.02115258340038256
0.98313528 0.02112334364857013
0.98212528 0.02109310525540625
0.98114204 0.021060550305669
0.98007804 0.0210295767368128
0.97910637 0.02100070812836452
0.97814959 0.02097082371538922
0.97714382 0.02093674790942014
0.97610015 0.0209095231354392
0.97512317 0.02087619948886449
0.97413456 0.020849009747811
0.97315657 0.02081893911074276
0.9720968 0.02078879761069807
0.97108811 0.0207643067891089
0.97006333 0.02073571989765494
0.96909267 0.02071066240670116
0.96809453 0.0206828283197764
0.96710479 0.02065696713139512
0.96613532 0.02062965524318222
0.9651221 0.02060641033393851
0.96417177 0.02057437624090308
0.96315241 0.02055184671351329
0.96211076 0.02052462432604649
0.96115583 0.02049777104305894
0.96012384 0.0204730047682663
0.95911717 0.02045160828371678
0.95814228 0.02042174955163839
0.95716751 0.02039691200964933
0.95615661 0.02037061720329808
0.95508516 0.02034772514889496
0.95412517 0.02032349976232387
0.95311213 0.0203014841261191
0.95210546 0.02027545322521807
0.95106268 0.02025265883195171
0.950073 0.02023316318486149
0.94911623 0.02020912271432793
0.94816029 0.02017934104858829
0.94714421 0.02015714286244474
0.94606209 0.02013825596724117
0.94510758 0.02010977626842865
0.94412321 0.02008643391471
0.94310474 0.02006252635166883
0.94209808 0.02004192470566424
0.94113809 0.02001771715812441
0.94013029 0.01999616952444847
0.93909508 0.01996953664476886
0.93809688 0.01995127028688631
0.93709874 0.01992935085015948
0.93604958 0.019911844221901
0.93514687 0.01989168538259251
0.93410194 0.01987018236993919
0.93315148 0.01984955420711126
0.93209916 0.01983273776487409
0.93110102 0.01980773248457512
0.93007427 0.01978559313607142
0.92910355 0.0197625511274156
0.92810333 0.01974401831588093
0.92710298 0.01972148232744081
0.92611533 0.01970268336784403
0.92514592 0.01968138443448378
0.92411685 0.01966008497887139
0.92309755 0.0196422853866049
0.92209077 0.01961764325905193
0.92109787 0.01960480611564386
0.92011356 0.0195838778810058
0.91914397 0.01956791775753822
0.91811508 0.01954577837831406
0.91709983 0.01952787350617458
0.91611874 0.01950951846245317
0.91510886 0.01948689961055711
0.91407883 0.01946765982817555
0.9131093 0.01944830686261423
0.91212904 0.01942808489386366
0.91110224 0.01940594587682026
0.91013801 0.01939224849209295
0.90913236 0.01937625544734252
0.90811193 0.0193565644860631
0.90707237 0.01933417629657525
0.90612936 0.01932118767258034
0.90508121 0.01930017051765598
0.90410221 0.01928580338103028
0.90309656 0.01926609489924491
0.90208358 0.0192474830837456
0.90109813 0.01923230257266884
0.90010518 0.01921361878339671
0.89909011 0.01919833208537768
0.89807594 0.01917597207971594
0.89707887 0.01916215034887306
0.89608699 0.01913994968829993
0.89509726 0.01912457476201879
0.89410549 0.01910825224735574
0.89314228 0.01908785321090067
0.89202636 0.01907232702716199
0.89113951 0.01905088670901026
0.89009875 0.0190451885086157
0.88906783 0.01901475906682517
0.88807702 0.01900298138530677
0.88709801 0.01898644857283222
0.88608068 0.01896728731420202
0.88513869 0.01895692532060719
0.88409501 0.01893482973618027
0.88312322 0.01892749086740281
0.88215899 0.01890635051596401
0.88113326 0.01889355646239396
0.88012975 0.01887415769710471
0.87908709 0.01886185884844366
0.87809086 0.01883983361605929
0.87708211 0.01882687198101653
0.87613273 0.01880973651067408
0.87510806 0.01879195531202857
0.87409174 0.01877564203783147
0.87308097 0.01875911792740229
0.87209862 0.01874899370725164
0.87106436 0.01872631491439988
0.87009704 0.01871496114634086
0.86911035 0.01869678154374324
0.86809635 0.01868512820834045
0.86708969 0.01867060228930018
0.86610204 0.01865232569818752
0.8650912 0.01864045130464052
0.8640781 0.01862249407632699
0.86309582 0.01861022964294536
0.86210722 0.01859298021008743
0.86111957 0.01858165348595425
0.86014479 0.0185652170702169
0.85910624 0.01855263430075471
0.85810274 0.01853403316151048
0.85706437 0.01852030044149916
0.85611272 0.01850371444662527
0.85506368 0.01849114910388992
0.85409093 0.01846887792311874
0.85302907 0.01846064558776567
0.85210729 0.01844218415822588
0.85108155 0.01843071695313689
0.8500855 0.01841545529896405
0.84908402 0.0184007868746347
0.84806144 0.01838755831219421
0.84711421 0.01837636610758231
0.84615207 0.01835472083863959
0.84514761 0.0183470828827316
0.84411544 0.0183275868346553
0.84312785 0.01831147589998891
0.84214544 0.01829406677603002
0.84109855 0.01828527790914658
0.84012371 0.01826327103157786
0.83910751 0.01825017688032764
0.83813798 0.01823729424601581
0.83709615 0.01822136908594982
0.83608115 0.01820750661782872
0.83508819 0.01819833727171906
0.83408797 0.01818116620415833
0.83310145 0.01816839896491732
0.83210373 0.0181589253221838
0.83106256 0.01813115753369259
0.83008343 0.01812053892030641
0.82912135 0.01810116524251913
0.82807332 0.0180854632473913
0.82708567 0.018068866954612
0.82608122 0.01805681488379679
0.82509136 0.01803566505097688
0.82409966 0.01802868008477773
0.82311636 0.01800871662756751
0.82206619 0.01799781371988102
0.82109135 0.01798063405537209
0.82005697 0.01796688536867616
0.8191362 0.01795252728657537
0.81806695 0.017933605243646
0.81709534 0.01791810616850857
0.81610245 0.01790219942308302
0.81510955 0.01788752309221306
0.81403607 0.01786757433405413
0.8130601 0.01785152768166478
0.8120206 0.01783322588016753
0.81100643 0.01782258713178131
0.80999768 0.017800129675177
0.80906534 0.01778622202497601
0.8080129 0.0177687074529887
0.80703813 0.01776171222607248
0.80604422 0.01773628355456619
0.80503851 0.01772347283581954
0.80406052 0.01770349045626876
0.80307293 0.01768898915260153
0.80203658 0.01766453385547118
0.80107433 0.01764959872040589
0.80004334 0.01762918322250095
0.79900914 0.01761081965297409
0.79799813 0.01759203015373922
0.7970255 0.01757214547413047
0.79602093 0.01755543425679217
0.7950418 0.01753613363123604
0.79399794 0.01751550513694797
0.79302847 0.0174983156579806
0.79204619 0.01747836838896749
0.79105008 0.0174553185077255
0.79003394 0.01743643436121706
0.78899115 0.0174131005753427
0.7879802 0.01739191429482569
0.78702557 0.01736587524646904
0.78606337 0.01734258719726423
0.78508431 0.01731846552057609
0.78405851 0.01729971147142362
0.78302431 0.01727095960814043
0.78205365 0.01725046366239749
0.78105229 0.01722029537551056
0.78003085 0.01719860682270435
0.77903575 0.01717603324019978
0.77805567 0.01715225792173047
0.77701718 0.01711910177093365
0.77602208 0.01709676860870488
0.7749784 0.01706660055303177
0.77399766 0.01703573344243381
0.773018 0.01700209065650903
0.77197635 0.01697166679110121
0.77102482 0.01693986164819867
0.77001607 0.01690109939631335
0.76903164 0.01687582900437223
0.76801759 0.0168394366531478
0.76702565 0.01680235418381124
0.76601475 0.01676554649990677
0.76501763 0.01673695127990671
0.76407564 0.01669154067187467
0.76307011 0.01666207991850872
0.76204109 0.01662283941307886
0.76105148 0.01658200056570222
0.76006055 0.01654135460719575
0.75902104 0.01649963044878355
0.75801975 0.01645340598770419
0.75702465 0.01641210520433055
0.75603718 0.01636304270586048
0.75507706 0.01631935575278481
0.75401849 0.01626386415187475
0.75304681 0.01621709136331145
0.75202209 0.01616564206779006
0.75103462 0.01611159117277977
0.74999601 0.01605915122005785
0.74899793 0.0160077455091394
0.74805588 0.01594324390235773
0.74698657 0.01589244753348693
0.74604034 0.01582974169610277
0.74501669 0.01576973278457042
0.74399948 0.01570306695066392
0.74301398 0.01564558568740423
0.74199879 0.01557534777546399
0.74100494 0.01551238566995988
0.74004698 0.01543219047016464
0.73900861 0.01536618742021448
0.73804522 0.015290023818832
0.73701215 0.01521539069653963
0.73601282 0.01513352472829871
0.73497647 0.01505317960335462
0.73402393 0.01496472652070224
0.73302257 0.01488482366403335
0.73200637 0.01478882009218471
0.73104525 0.01470584016674872
0.73004919 0.01461188726777138
0.72903305 0.01451833276627844
0.72807932 0.01442062232510782
0.72703767 0.01432002967663321
0.72603619 0.01421506029873859
0.72504759 0.0141122301081649
0.7241174 0.01400773817375822
0.72306609 0.01389526253559686
0.72203189 0.01377974438057411
0.72101671 0.0136651996274143
0.72002381 0.01355281162250319
0.71903938 0.01342404923262726
0.71802109 0.01331125449926027
0.71703672 0.01318570162564156
0.71603566 0.01304961127829662
0.71506572 0.01292070550294338
0.71403253 0.0127866819036879
0.71296972 0.01264149097712813
0.7120235 0.01250264821606434
0.71103162 0.01235667979845959
0.71001434 0.01220667903382695
0.7089631 0.01205838503261075
0.70800531 0.01190525409280478
0.70701241 0.01175008166804527
0.70599186 0.01158375906622192
0.70499265 0.01142811737130009
0.70399654 0.0112587440089556
0.70301968 0.01108525966588381
0.70203835 0.0109087248905174
0.7010476 0.01073401169883764
0.69997942 0.01054286132340269
0.69905967 0.01036802405077551
0.69800639 0.01017429228765351
0.6970166 0.00998657310103429
0.69600046 0.009789675764396738
0.69498849 0.009599064500232813
0.69399667 0.009400054724311442
0.69300061 0.009195155337187719
0.69206381 0.008988947706206528
0.69102854 0.008788646351604257
0.69003254 0.008566965243112998
0.68903011 0.008358113708608367
0.68803191 0.008137794478291938
0.68704855 0.007907493945418152
0.68603551 0.007679252132220454
0.68504155 0.007455874120447945
0.68399143 0.007210630042714519
0.68300176 0.006986093423216128
0.68198436 0.006742051750835469
0.68102121 0.006500521165030991
0.67999965 0.00625716029672832
0.67903024 0.006015550325779878
0.67800444 0.005758201708684097
0.67705393 0.005503744326738851
0.67603135 0.005238323155936114
0.67500556 0.004984440868105983
0.67402333 0.004711928973039098
0.67225659 0.003980371041907335
0.67042506 0.003654188946812731
0.66941953 0.003381574699637388
0.66840857 0.003095651577799202
0.66740721 0.002816200630655276
0.66639739 0.002532138013824204
0.66544366 0.002248437228142101
0.66438615 0.001948821288755828
0.66335934 0.001659550097732188
0.66243112 0.001364789070622567
0.66139054 0.001060654999592873
0.66037959 0.0007609753547765468
0.65941113 0.000460038201096166
0.65833062 0.000138263086450671
0.65740734 -0.0001583455596494171
0.65635937 -0.0004673035432397714
0.6553961 -0.0007841788657414212
0.65433955 -0.00110094282402113
0.65343148 -0.00140914907847723
0.65239203 -0.001729775752008
0.651416 -0.002051073548399372
0.65043491 -0.00237689913258994
0.64939964 -0.002699060038139571
0.64836311 -0.003032678248524047
0.64741063 -0.003357044613747136
0.64639854 -0.003684831407453092
0.64543223 -0.004026461731983635
0.6443609 -0.004351245654510803
0.64339972 -0.004684888619117866
0.64236987 -0.005024719210066711
0.64139384 -0.005356325500340764
0.64042538 -0.005685788070776538
0.63940495 -0.006028866541681846
0.63840675 -0.006367842843044633
0.6374107 -0.006717848321487599
0.63638806 -0.007056933979280686
0.63541645 -0.007402228946577646
0.63439274 -0.007749114375959237
0.6334359 -0.008092914038166393
0.63239217 -0.008441617735823267
0.63134724 -0.008791246166058253
0.63039261 -0.009132853416506076
0.62936783 -0.009487030111712452
0.62754548 -0.01001324309123446
0.62584084 -0.01061239240920661
0.62482888 -0.01096337472780658
0.62380731 -0.01131620542906195
0.62280595 -0.01166789537415347
0.62179387 -0.01202193715855368
0.62083608 -0.01236942780411076
0.61979115 -0.0127256887838787
0.61880362 -0.01307015520190666
0.61777681 -0.01341850366103847
0.61681044 -0.0137739338832842
0.61582506 -0.0141158885372634
0.61480016 -0.01445599631632728
0.61378723 -0.01480853539315929
0.61284208 -0.01515402711326413
0.61180997 -0.01550451462713275
0.61082339 -0.01585104140071453
0.60984427 -0.0162014139140309
0.60881329 -0.01654696915324572
0.60787338 -0.01688360067944608
0.60682535 -0.01723110941303374
0.60577625 -0.01756593696093955
0.60475683 -0.01790192409276242
0.60374492 -0.01824578982228148
0.60279334 -0.0185702571486924
0.60178351 -0.01889346703925779
0.60081291 -0.01923536076598487
0.5998143 -0.01955662653359302
0.59879637 -0.01988898748984666
0.59786922 -0.02021202127475086
0.59678835 -0.02053593135335374
0.59577638 -0.02085482838608882
0.59479618 -0.02117750912536087
0.59376937 -0.02149667067310976
0.59276265 -0.02181618523577011
0.59182918 -0.02211857406493631
0.59080446 -0.02243490588120439
0.58975857 -0.02273131642464754
0.58872432 -0.02303363506345907
0.58776426 -0.02333785263989627
0.58674383 -0.02362787109288744
0.58576357 -0.02392409689491598
0.5847432 -0.02422035901529143
0.58381295 -0.02449433002200552
0.58273828 -0.02478118223694349
0.58178473 -0.02505677178851304
0.58075887 -0.02532702976572582
0.57978624 -0.0255916539463214
0.57874554 -0.02585680045497909
0.57777387 -0.02610837456045878
0.57675141 -0.02636508812752758
0.57574672 -0.02661010076634633
0.57476133 -0.02685725484560755
0.57382256 -0.02709944775496195
0.57276922 -0.02732188957937376
0.57183045 -0.02755710721895499
0.57079613 -0.02777957530795698
0.56978416 -0.02798854237900938
0.56874985 -0.02820241615215004
0.56780577 -0.02840167264285895
0.56680131 -0.02860892527193445
0.56577229 -0.02879673300614949
0.56479961 -0.02899653958027348
0.56376523 -0.02915837848882397
0.56278092 -0.02933038544465991
0.56179857 -0.02949688488701607
0.56081104 -0.02965746926201973
0.55979162 -0.02979793065363384
0.55876368 -0.0299559938123114
0.55781126 -0.03008866409072652
0.55679172 -0.03021147613536523
0.55579251 -0.03034390025681599
0.55479336 -0.03045695994741326
0.55378234 -0.03055773899702918
0.5527333 -0.0306621153415309
0.55177212 -0.03074340776947793
0.55081642 -0.03081348693295805
0.54975033 -0.030885298713757
0.54876065 -0.03094149824594028
0.54776883 -0.03099544181734216
0.54677057 -0.03103766908235328
0.54574066 -0.03107620227254092
0.54476041 -0.03109500043986679
0.54376334 -0.0311174491329842
0.54275566 -0.03112004904283402
0.54179049 -0.03111981275186937
0.54077095 -0.03109587421446725
0.53979176 -0.03107732388566042
0.53878939 -0.03101850243466386
0.53776467 -0.03096628121501366
0.5367431 -0.03091193030963438
0.53581178 -0.03085116137743971
0.53480613 -0.03077266445325211
0.53377932 -0.03069361802125858
0.53277689 -0.03059795999918913
0.53180307 -0.0304980043017874
0.53079855 -0.03038358993297963
0.52978337 -0.03025594305977891
0.52875447 -0.0301220505724713
0.52780604 -0.02996838122877915
0.52674961 -0.02982155565728636
0.52577472 -0.02964525824225139
0.52478713 -0.02947533846923367
0.5238356 -0.02930113693906201
0.52281618 -0.02911775866394029
0.52175653 -0.02891709610412355
0.52078271 -0.02872246048355009
0.51979297 -0.02850217825228651
0.51878417 -0.02828613724624213
0.5177722 -0.02806381081528442
0.51681542 -0.02783048557790191
0.51575148 -0.02759821327991725
0.51473737 -0.02735333230682757
0.5137254 -0.02711661936579415
0.51280671 -0.02685866155661633
0.51177251 -0.02660790810639599
0.5107891 -0.02635833260946018
0.5097751 -0.02609729601277243
0.50876945 -0.02583756906905255
0.50776064 -0.02559225515384844
0.50676459 -0.0253155970470591
0.50580239 -0.02505796471086791
0.50477457 -0.02479586952055493
0.50375724 -0.02452859152173104
0.50275695 -0.02426660026604702
0.50178748 -0.02401068451258147
0.50072235 -0.02374956900570788
0.49976668 -0.02349014223727861
0.49874291 -0.0232334416149468
0.49775121 -0.02298453491109995
0.49677739 -0.02273052917896867
0.49577919 -0.02248053766864638
0.49478209 -0.02223288041164373
0.49378595 -0.02198792754885892
0.4928048 -0.02174724616149123
0.49173445 -0.02151070082295009
0.49077553 -0.02127305282758452
0.48980385 -0.02104221141133969
0.48875898 -0.02080990333666291
0.48777995 -0.02058296952681188
0.48678595 -0.02035790269373031
0.48580793 -0.02014204915192536
0.48482242 -0.01991978086253557
0.48379138 -0.01971517651691099
0.48278365 -0.01950807710010036
0.48178864 -0.01930276131153931
0.48079368 -0.01910219487359019
0.47977108 -0.01890204301485525
0.47873783 -0.01870857697051379
0.47779912 -0.01851476572725613
0.47673193 -0.01832397791117218
0.47572315 -0.01813885822129019
0.47480133 -0.01795108584176169
0.47375754 -0.01776646863112946
0.47278059 -0.01759241962281521
0.47178763 -0.01741902283780894
0.47074386 -0.01723852806511178
0.4697679 -0.01707093166543122
0.46881747 -0.01690775719988673
0.46776623 -0.01673669496247182
0.46673623 -0.01657653541446452
0.46574235 -0.01641782496234451
0.46473137 -0.01626222835329832
0.46374065 -0.01610764697640353
0.46274346 -0.01595755056930803
0.4617708 -0.01581086560003711
0.46077365 -0.01565733721913086
0.45978072 -0.01551962500606249
0.45877513 -0.01537115479166257
0.45772812 -0.01523438969727264
0.45676073 -0.01509544154234588
0.45575723 -0.01495354033896645
0.45476434 -0.01482075436474077
0.45378211 -0.01468857905355331
0.45277008 -0.0145567474634542
0.4517836 -0.01442998346788547
0.45077688 -0.01430099099201876
0.44975218 -0.01417831120327007
0.44877842 -0.01404962892653799
0.44778651 -0.01393739954882121
0.44675022 -0.01381532121579054
0.44573927 -0.01370063475769701
0.444792 -0.01358338469759066
0.44372699 -0.01347336650360376
0.4427532 -0.01335588634052932
0.44179109 -0.01324062423453948
0.4407239 -0.0131334095705016
0.43975437 -0.01302308192842044
0.43875304 -0.01291527384051328
0.43770283 -0.01280840326459534
0.43673331 -0.01270468097936828
0.43576056 -0.01260092269512822
0.43477196 -0.01250300961853804
0.43375036 -0.01240151437054404
0.43274373 -0.01230501582014973
0.43173072 -0.01220616455894846
0.4307346 -0.0121114609840636
0.42976296 -0.01201476704348653
0.42873394 -0.01192295453236305
0.42772627 -0.01182604802630119
0.42670158 -0.01173568517212211
0.42575532 -0.01164870544922042
0.42470309 -0.01155972584254211
0.42374513 -0.01147065384591563
0.42275974 -0.01138703720385417
0.42175624 -0.01130182939151476
0.4207347 -0.01121467572617496
0.41976202 -0.0111362310514475
0.41870329 -0.01104637244215053
0.41775078 -0.0109658327888206
0.41674829 -0.01088083690329866
0.41574907 -0.01080222463578032
0.41475621 -0.01071860809881596
0.41379189 -0.01064165809414891
0.41273224 -0.01056286081115504
0.41169897 -0.0104894388754878
0.41075069 -0.01041455755734605
0.40979812 -0.01033873055712323
0.4086917 -0.01026192144005714
0.40775508 -0.01019208076872427
0.40672395 -0.01011867609809591
0.405729 -0.01004593453560827
0.40475518 -0.009968808473786311
0.40376124 -0.009902786603359123
0.40277475 -0.00982566931957584
0.40170753 -0.009762486082359384
0.40077198 -0.009691035491414347
0.39973235 -0.009626128775481538
0.39873102 -0.009556808715893109
0.39777213 -0.009494129594208466
0.39670283 -0.009424482876460805
0.39571741 -0.009362723413990609
0.3947117 -0.009298089640247309
0.39374435 -0.009239124118822556
0.39271328 -0.009172908142014997
0.39171189 -0.009111651948640179
0.390701 -0.00903935279832993
0.38971338 -0.008984304401059878
0.38871416 -0.008922076016056546
0.38773397 -0.008865638739532895
0.38670823 -0.008801421378545143
0.38571006 -0.008743436241477151
0.38473836 -0.008683436677125012
0.38371897 -0.008627370705653406
0.38273346 -0.008571385193338013
0.38172683 -0.008519395394412432
0.38078171 -0.008458714366295472
0.3796891 -0.008406919403771217
0.37877151 -0.008348908443521291
0.37773404 -0.008295866938068552
0.37669557 -0.008242807583883405
0.37580562 -0.008189146372994078
0.37476388 -0.00813545034988139
0.37373284 -0.00807786435082862
0.37273672 -0.008027960750849925
0.37175977 -0.007976183736496334
0.37075838 -0.0079202149516075
0.36974218 -0.007867846106819315
0.36873057 -0.00781498012890283
0.36775643 -0.00777602348777387
0.36672431 -0.007728702228632756
0.36570907 -0.007677190276606571
0.36477989 -0.007633308938238766
0.36373076 -0.007582636543601312
0.36271983 -0.007536632555355832
0.3617132 -0.007484006410474336
0.36068103 -0.007443493754787298
0.35973063 -0.007391813363938141
0.35872284 -0.007346923796527918
0.35773316 -0.00729808159828987
0.35679123 -0.00725638380026794
0.35574949 -0.007203598421054051
0.35474494 -0.007162572897666683
0.35372019 -0.00711466808206751
0.35272419 -0.007073633478285019
0.35171115 -0.007028478713942191
0.3507458 -0.006986497927250127
0.34968826 -0.006942307049838628
0.34871018 -0.006904171926079353
0.34775868 -0.006857116083766518
0.34665442 -0.006817964963880097
0.34570819 -0.006787434487099175
0.34473765 -0.006735038163848614
0.34371498 -0.006693658738287103
0.34271896 -0.006655762957557734
0.34169525 -0.006609175271377256
0.3407459 -0.006570024064179364
0.33973926 -0.006529979598174876
0.3387177 -0.006487680635473229
0.33773544 -0.006451013852104823
0.33677113 -0.006409952708862743
0.33574539 -0.006374064184557118
0.3347207 -0.006338360841052923
0.33375961 -0.006298175006425766
0.33277419 -0.006261650103018199
0.33172399 -0.006227238047964986
0.3307237 -0.006187078469035108
0.32973289 -0.006148820082873679
0.3287496 -0.006116521130833361
0.32773659 -0.006075858159116822
0.32673624 -0.00603907617834111
0.32573488 -0.006006176112552764
0.32468468 -0.005971304174535241
0.32372153 -0.005930808808544571
0.32271171 -0.005898898631939015
0.32171029 -0.005861286158000842
0.3207238 -0.005829066876079494
0.31970435 -0.005791285836797486
0.31871468 -0.005758093519640767
0.31768462 -0.005721002679719159
0.31673527 -0.005690524840853542
0.31574771 -0.005656422518061123
0.31471446 -0.005627518364134512
0.31371734 -0.005590082448583805
0.3127096 -0.005562107210910924
0.31175599 -0.005525351685921331
0.31069484 -0.005499068475062902
0.30975959 -0.005465086373280609
0.30872324 -0.005438508321983823
0.30770805 -0.005401859118137491
0.30673853 -0.005375607487722943
0.30564907 -0.005342955165461814
0.30468592 -0.005313343795326844
0.3037408 -0.005279223761640917
0.30274361 -0.00524810056675859
0.30172637 -0.005218692733453489
0.3007282 -0.005190487617558887
0.29971936 -0.005157083627030552
0.2987 -0.005130655264413989
0.29772192 -0.005095173240180072
0.29671738 -0.005069089977041592
0.29570857 -0.00503756041062943
0.29475388 -0.005010195209858154
0.29369631 -0.004979248973136716
0.29268536 -0.004957710445725943
0.29171583 -0.004924783464957708
0.29070172 -0.004902484539747495
0.2897014 -0.004871715287057033
0.28873932 -0.00484920436671623
0.28770187 -0.004817409008764009
0.28672066 -0.004792687786700972
0.28575745 -0.004762758099887923
0.28469774 -0.004736233106895166
0.28371331 -0.004708841304414402
0.28268546 -0.004683704073815725
0.2817902 -0.00465559615299245
0.27908516 -0.00456580952878638
0.27819201 -0.004539253271812205
0.27716413 -0.004516802357102286
0.276097 -0.004490115779642818
0.27511045 -0.004469589859379786
0.27409104 -0.004444010052490423
0.27312788 -0.004420272545555936
0.27208835 -0.004395355803959916
0.27110285 -0.004373047943065282
0.27007392 -0.004345778088867908
0.26909903 -0.004323220783084641
0.26811785 -0.004295587564330261
0.26714408 -0.004274977194856727
0.26610661 -0.004245693027365216
0.26513705 -0.004230003722316009
0.26406673 -0.004201182498945827
0.26306748 -0.004180579490316128
0.26209262 -0.00415789952846049
0.26111034 -0.004133511416310076
0.26012066 -0.004113684999740352
0.25915748 -0.004084209623316501
0.25812849 -0.004066755019771825
0.25711969 -0.004039860229467084
0.25615761 -0.004021607988963505
0.25515094 -0.003996991891148757
0.25416332 -0.003974452243710402
0.25310892 -0.003955977675407979
0.25213984 -0.003919857360773105
0.25112206 -0.003906790034913357
0.25015041 -0.00388182392149853
0.24914801 -0.00386081489058495
0.24808617 -0.00384360694766251
0.24711871 -0.003821012362499862
0.24614282 -0.003802194161026916
0.24509053 -0.003779224654661226
0.24414541 -0.003757294451336046
0.24313554 -0.003740436687318528
0.24210447 -0.003718081031466779
0.24113066 -0.00369835006010058
0.24008048 -0.003677871874768035
0.23912898 -0.00366177099891097
0.23810853 -0.003638116275599006
0.23712626 -0.003617617725871651
0.23607713 -0.003602573688517116
0.23510969 -0.00358054419626164
0.23411256 -0.003559389561309634
0.23310272 -0.003544614348154729
0.23211937 -0.003523641684296301
0.23110105 -0.003510016886139056
0.2301124 -0.003486108325281137
0.22910465 -0.003469881953909244
0.22809798 -0.003450550825113569
0.2271072 -0.003430550949310093
0.22608572 -0.003414579161269797
0.22511189 -0.003391853181609672
0.22407763 -0.003377740969881397
0.22310595 -0.00335973982368562
0.22216612 -0.003341334391936653
0.22107883 -0.00332609758030835
0.22010295 -0.003309100108809693
0.21914928 -0.003295729223383285
0.21812987 -0.003273050747642017
0.21715289 -0.003261382197403384
0.21614942 -0.003245341314646381
0.21513002 -0.003224572201159188
0.21414456 -0.00320872423071706
0.21312939 -0.003189477131753739
0.2121015 -0.00317616533276224
0.2110545 -0.003159237732486664
0.21011254 -0.003143102446200721
0.20910905 -0.003125939467685777
0.20813316 -0.003107796694166602
0.20713921 -0.00309174277289356
0.2061463 -0.003073714951016066
0.20511842 -0.003060200985702158
0.20412023 -0.003043217398953857
0.20309235 -0.003028337898083707
0.20207295 -0.003007364432050953
0.20109278 -0.002993080925888431
0.20005322 -0.002977108132755448
0.19909638 -0.002962921006757012
0.19806957 -0.002950351352006289
0.19710535 -0.002928291135605006
0.19613366 -0.002919612395999128
0.19509409 -0.002898890063281404
0.19408345 -0.002883503696672387
0.19313273 -0.002869704805561916
0.19212182 -0.002856298375061465
0.19107483 -0.002840784821981083
0.1900533 -0.002830621266993041
0.18907101 -0.002817617506783185
0.18808554 -0.002797229476224539
0.18711494 -0.00278805633994731
0.18603401 -0.002771689245289748
0.18510586 -0.002759730543807057
0.1841225 -0.002741390673691058
0.1831243 -0.002731567661814743
0.18213779 -0.00271579851384254
0.18111733 -0.002703746029106276
0.1801181 -0.002686444241893085
0.17916764 -0.002674701302061683
0.17813867 -0.00265684946902587
0.17711502 -0.002644541692764794
0.17610727 -0.002631048584993939
0.17516108 -0.00261522029419816
0.17413214 -0.002602241880190866
0.17314668 -0.002588801860838416
0.17207104 -0.002576612423783643
0.17107603 -0.00256369336663435
0.17006616 -0.002552359056911264
0.16911466 -0.002538125864197757
0.16811436 -0.002529596714642441
0.16710767 -0.002513249134911646
0.16608614 -0.002505972837348554
0.16511872 -0.00248981470091772
0.16411945 -0.002482246551153356
0.16312341 -0.002463815665073019
0.16207325 -0.002455864551747147
0.16108142 -0.002437060538593674
0.16009277 -0.002425531573357547
0.15909138 -0.002410664371685307
0.1581229 -0.00240215727434487
0.15710562 -0.002384838710996623
0.15606925 -0.002377756956775549
0.15508698 -0.002364540843700517
0.15406862 -0.002357365390909964
0.15308635 -0.002343698335405653
0.15211467 -0.002334507481767403
0.15106027 -0.002321323981151278
0.15005572 -0.002309583807194334
0.14911163 -0.002293493530588511
0.14811131 -0.00228371476926743
0.14709401 -0.002272291124528333
0.14609584 -0.002258324156880709
0.14511888 -0.002247930699619854
0.14410584 -0.002237387851184595
0.14311931 -0.002225222146282457
0.1421646 -0.002216031377934594
0.14112929 -0.002208986992829723
0.14009717 -0.002197250972231918
0.13913929 -0.002187426170874252
0.13811988 -0.002175724854977381
0.13711214 -0.00216647849891969
0.13616912 -0.002152092230276279
0.13510092 -0.00214208362740464
0.13408574 -0.0021318730776127
0.13310984 -0.00212090678602788
0.13207665 -0.002106963484240824
0.13108587 -0.002096453612264466
0.13009405 -0.002087282964971052
0.12908949 -0.002080700198550597
0.12811889 -0.00207092314445213
0.12711115 -0.00206589473277239
0.12610237 -0.00205245326166429
0.1250734 -0.002041283370191292
0.12413567 -0.002030365405719029
0.1230802 -0.002021081910344134
0.12207565 -0.002006261472464153
0.12108914 -0.00199690530159083
0.12008565 -0.001986779875854452
0.11907474 -0.001980666506319208
0.11812957 -0.001971692460453291
0.11709426 -0.001964752411772172
0.11607592 -0.001954453496384501
0.1151191 -0.00194757253090453
0.1140753 -0.001934817910700479
0.11308029 -0.001928098924003682
0.11209483 -0.001914710196211269
0.11106908 -0.001908815365722044
0.11012498 -0.001894968640347841
0.10910026 -0.0018878604278143
0.1080639 -0.001876894016580376
0.10711449 -0.001870003428444351
0.10605902 -0.001856985290942241
0.10509373 -0.001850482006072213
0.10412204 -0.001839229002750164
0.10310052 -0.001841917338525595
0.10211931 -0.001828503875609989
0.10109778 -0.001819368954076913
0.10010596 -0.001815637941945171
0.099125795 -0.00180422218343463
0.098108515 -0.00179778080938477
0.097149581 -0.001786084861224582
0.096106835 -0.001781739315548394
0.095034391 -0.001768784876326708
0.094053172 -0.001764015696304938
0.093138792 -0.001754490641360476
0.092100278 -0.001743785892560683
0.091133922 -0.001738623350825539
0.090079516 -0.001726212744668169
0.089126937 -0.001722013039600116
0.088103279 -0.001708468835002148
0.087069035 -0.001703354822792685
0.086071901 -0.001692502369628014
0.08508645 -0.001685929257999094
0.084100984 -0.001678581464653278
0.08307945 -0.001669887643705199
0.082127944 -0.0016680137286029
0.081072479 -0.001657069406165735
0.080085948 -0.001655562549583715
0.079046391 -0.001647160609031236
0.078081243 -0.001643181463257676
0.077122152 -0.00163181767988539
0.076076224 -0.001628665957165734
0.075076967 -0.001622579146492671
0.074128635 -0.001613973797146982
0.073103927 -0.001608324790746943
0.072039977 -0.00159738834877822
0.071088456 -0.00159508999038533
0.070061624 -0.001582254059333836
0.069076166 -0.001576256597420271
0.068073735 -0.001566113476049694
0.067077667 -0.00156081983914191
0.066090092 -0.001555162058442264
0.06508553 -0.001547671761727539
0.064103261 -0.001546059714706238
0.063117795 -0.00153575382551531
0.062090967 -0.00153330510683089
0.061081108 -0.001522530617977386
0.06012854 -0.001521562250066682
0.05908791 -0.001510219902027326
0.058149122 -0.001507479417644689
0.057144575 -0.001497204531915486
0.05615275 -0.001488826468832678
0.055093035 -0.001484005138283665
0.054100156 -0.001474719773088714
0.053108323 -0.001470284876328754
0.05212817 -0.001461827231145837
0.051083308 -0.0014570642795459
0.050072391 -0.001447148417052326
0.049091171 -0.001447980523658366
0.048121624 -0.001439505161619704
0.04711071 -0.001436938918535212
0.04610721 -0.001430862650017337
0.045048561 -0.001427261735039385
0.044056736 -0.001418730756692337
0.043085061 -0.001412531674254244
0.042109154 -0.001408106517070942
0.041057926 -0.001400140484090824
0.040040638 -0.001394519715985452
0.039123073 -0.001384609141193016
0.038115337 -0.001379857703593893
0.037102297 -0.001374702977854112
0.036042579 -0.001368296169251451
0.035078339 -0.001364826875942526
0.034076966 -0.001357472012083838
0.033085141 -0.001353567770012071
0.032099683 -0.001346147483976283
0.03108982 -0.00134061238653279
0.030041778 -0.001338566096920761
0.02908814 -0.001327665052485822
0.028051766 -0.001328412354471056
0.027106615 -0.001320347344517355
0.026136005 -0.001313929782655676
0.025097506 -0.001310558852815618
0.024110986 -0.001304751457003778
0.023121282 -0.00130067825860654
0.02217507 -0.001291763407708559
0.021145059 -0.001291037387697237
0.020117169 -0.001290717297059825
0.019132769 -0.001282131338888982
0.018104877 -0.00128043707415296
0.017070623 -0.001273973515102018
0.016101075 -0.001267428650256379
0.015061517 -0.001265795368858048
0.014104698 -0.001256649694065942
0.013089536 -0.001255206416721591
0.01212423 -0.0012494424480691
0.011087853 -0.001243544077321228
0.010118306 -0.001240370284095758
0.0091328453 -0.00123270491561318
0.0080837402 -0.001229160594347274
0.0070844898 -0.001224538223747608
0.0060332618 -0.001220588876195604
0.0050912937 -0.001219730199712402
0.0040390054 -0.001210558031945964
0.0031235563 -0.00120928636260942
0.0020680854 -0.001205449260649197
0.0010561062 -0.001200760604458783
0.00009080123 -0.001198550678458961
-0.00048626037 -0.001225189092413833
0.000078071913 -0.001173068975226161
0.0010900513 -0.001156438456948506
0.0020383839 -0.001146291690727393
0.0031193134 -0.001136326342930258
0.004062342 -0.001120700357912735
0.0050955364 -0.001116060275409019
0.006082058 -0.001104297950708617
0.0070516057 -0.001096821065806984
0.0080614621 -0.001086425807039226
0.0090479841 -0.001078660585941782
0.010120427 -0.001071824763231335
0.011059213 -0.001062277669209126
0.012083922 -0.001055949402850979
0.013106509 -0.001043846684499129
0.014079238 -0.001037756340034923
0.015065759 -0.001024081153142712
0.016075615 -0.001021467105197689
0.017082293 -0.001011799657741596
0.018053962 -0.001005619185636734
0.019112613 -0.0009986268952262463
0.02011296 -0.0009886036485193365
0.021037921 -0.0009802869640730552
0.022109304 -0.0009757370357369351
0.023087339 -0.0009646352564232023
0.024114165 -0.0009560900781859054
0.025090082 -0.0009565419390027176
0.026112668 -0.0009474175260240567
0.027066305 -0.0009430011953352538
0.02803161 -0.000936794148906803
0.0290839 -0.0009340350499971649
0.030079966 -0.0009213831086627641
0.031019812 -0.0009217801453915951
0.032080587 -0.000915250294130799
0.033075593 -0.0009084428053130165
0.034020741 -0.0008991185334505424
0.035095308 -0.0008951099046296601
0.036058489 -0.0008914735802439573
0.037067283 -0.0008815099092013643
0.038066544 -0.000875926326393205
0.039056245 -0.0008697245313366367
0.040083073 -0.0008647034074379528
0.041116264 -0.0008550828648468366
0.042085811 -0.0008514111535886347
0.043080825 -0.0008454021811606519
0.044065218 -0.0008388803093010982
0.045101598 -0.0008371682882473887
0.046091296 -0.0008256703324352396
0.047062971 -0.0008255306167181194
0.048108898 -0.0008198011155400309
0.049096476 -0.0008146436948158618
0.050077692 -0.0008127327457461628
0.051092856 -0.0007997313948888175
0.05209953 -0.0008019705182960024
0.053098779 -0.0007958686902485247
0.054093789 -0.0007891089591996383
0.055052727 -0.0007884466197336003
0.056072131 -0.0007789074365468348
0.057110626 -0.0007765533604874144
0.058096088 -0.0007718532332950806
0.059132464 -0.0007690561039655434
0.060071256 -0.0007639588823419915
0.061104443 -0.0007591260774562278
0.062093087 -0.0007541499823370628
0.063061573 -0.0007486539112101613
0.064128712 -0.0007424503926611384
0.065120541 -0.0007448973413678082
0.066061452 -0.0007332976770157975
0.067086153 -0.0007314574278704301
0.068082221 -0.000727477984481889
0.069048598 -0.0007172181009183175
0.070073299 -0.0007206209718586016
0.071112864 -0.0007132217983275438
0.072106794 -0.0007066318752448645
0.073096506 -0.0007075603967273791
0.074021503 -0.0006949765153068353
0.075038783 -0.0007006158366999037
0.076097436 -0.0006930796177281665
0.077122152 -0.0006866426392662054
0.078096233 -0.0006886188140345076
0.079087764 -0.0006768771327187988
0.08010187 -0.0006754471775012559
0.081071407 -0.0006682284333186946
0.082090817 -0.000665293390789478
0.083042324 -0.000663492893939595
0.084099919 -0.0006514210159972791
0.085066281 -0.0006559089998113936
0.086114332 -0.0006474742893563708
0.087089188 -0.000647232919820653
0.088076763 -0.0006412717078900538
0.089108899 -0.0006348152442620233
0.090106025 -0.0006377352761875142
0.091074519 -0.0006280961648472924
0.092083313 -0.0006264840574456455
0.093079388 -0.0006204618220080086
0.094080754 -0.0006173464134412304
0.095084243 -0.0006146827914663929
0.096100472 -0.0006096289309122493
0.097132601 -0.0006061738666984524
0.098130785 -0.0005997766894425805
0.099096112 -0.0005997661051979873
0.10009534 -0.000590385163680669
0.10114445 -0.000591262462269997
0.10211506 -0.000587453703954249
0.10312492 -0.0005815773581364036
0.10409553 -0.0005787625418633953
0.10513084 -0.0005725280702285496
0.10614177 -0.0005700343337290779
0.10711662 -0.0005671549237781098
0.10803207 -0.0005620444772678913
0.10909708 -0.000559021880715385
0.11004329 -0.0005616748209781174
0.11111255 -0.0005526007752097128
0.11205346 -0.0005551989411035014
0.11308029 -0.0005488185594357566
0.11408484 -0.000548899036023915
0.11508304 -0.0005429882306139484
0.11608335 -0.0005411665196233012
0.11710276 -0.0005382995675770642
0.118067 -0.0005413026737339042
0.11905457 -0.000531752918530198
0.12005064 -0.0005317697030528096
0.12111142 -0.0005288550204972523
0.12209582 -0.0005223243043069982
0.12305156 -0.0005252089492084147
0.12409219 -0.000517899129792769
0.12513918 -0.0005181334697176151
0.12608325 -0.0005093486268682064
0.12705599 -0.0005098093580879022
0.12810086 -0.0005011129728447698
0.12912981 -0.0005006283365926525
0.13011421 -0.0004962040568948891
0.13109331 -0.0004959546834268393
0.13208619 -0.0004913827374619173
0.13313423 -0.0004890402064777121
0.13407302 -0.0004840791461396686
0.13509454 -0.0004805250607660128
0.13606305 -0.0004819354349810054
0.13711958 -0.0004747893317976881
0.13808168 -0.000465416424453401
0.13913822 -0.0004661194453142851
0.14008549 -0.0004613715282175677
0.14111444 -0.0004615050664950899
0.14214446 -0.0004568411633398602
0.14310658 -0.0004548045663391848
0.14412068 -0.0004505571722953974
0.14512736 -0.0004503246047230878
0.14607568 -0.0004468739636346673
0.14704631 -0.000447098586063374
0.14808482 -0.0004425275177860986
0.14908829 -0.0004416095990664951
0.15008435 -0.0004373073937181809
0.15108573 -0.0004386957494059763
0.15207225 -0.0004295138775079164
0.15307789 -0.0004365159119667332
0.15409622 -0.0004276346774076947
0.15510395 -0.0004265779195470193
0.15609893 -0.0004216327917371627
0.15708759 -0.0004246385800949293
0.15808684 -0.0004171139249441094
0.15907973 -0.0004157909685192044
0.16010551 -0.0004129867768369868
0.16106232 -0.0004107016839043354
0.16209127 -0.0004068460528843488
0.1630746 -0.0004044079692246458
0.16410249 -0.000399668028927002
0.16511342 -0.0003938217762172102
0.16608612 -0.0003949563543604508
0.16712357 -0.0003916445976351996
0.16810159 -0.0003900023691585366
0.16910404 -0.0003855295010200478
0.17014362 -0.0003814359757446564
0.17110576 -0.000380310220230563
0.17211454 -0.0003796124894708754
0.17307134 -0.0003755295826219167
0.17411408 -0.0003781975786094128
0.17514515 -0.0003736689597594193
0.17611472 -0.0003734390524591106
0.17713517 -0.0003689555275943543
0.17811428 -0.0003697169495100955
0.17914747 -0.0003655287945447411
0.18012443 -0.0003664299211120826
0.18110672 -0.0003633754700634504
0.18213251 -0.0003606048942906949
0.18312857 -0.0003569402606697408
0.1840599 -0.0003561912384763355
0.18512811 -0.0003515839382796696
0.18608917 -0.0003500363649588194
0.18714041 -0.0003453998647778959
0.18808132 -0.0003451929421266356
0.18908376 -0.0003382580817338342
0.19011587 -0.0003407916627035466
0.19108436 -0.000333190047235297
0.19212817 -0.0003337038523214786
0.19310409 -0.0003278107009236919
0.1940926 -0.0003322388921658016
0.19510895 -0.0003226692835672416
0.19604984 -0.0003216867960544631
0.1971117 -0.0003157344284292979
0.19809927 -0.0003138738052004754
0.19911127 -0.0003132353316964824
0.20007338 -0.0003128488800206884
0.20111823 -0.0003089339825995312
0.2020708 -0.0003079736202633067
0.20307642 -0.0003072449465611892
0.20411919 -0.0003088791744529657
0.20515238 -0.0003019354648409302
0.20609966 -0.0003051561773696034
0.20712432 -0.0002991825867361009
0.20813632 -0.0003008442323309479
0.20912178 -0.0002933920496591071
0.21013907 -0.0002960361721054345
0.2110959 -0.0002914580497619884
0.21210469 -0.0002933672822614929
0.21307954 -0.0002867357663818525
0.21412651 -0.0002858364209461983
0.21510562 -0.0002801422774862464
0.21611336 -0.0002812450093188091
0.21714549 -0.0002727581811667627
0.21814471 -0.0002738193688729645
0.21908352 -0.0002723027655646445
0.22011352 -0.000273281701273238
0.22110747 -0.0002694808729302159
0.22209293 -0.0002706720642638378
0.22308689 -0.0002634789909608222
0.22409885 -0.0002720038696300739
0.22508113 -0.0002638902133816779
0.22610797 -0.0002648037217467293
0.22708814 -0.0002611603034286718
0.22813194 -0.0002614079236435726
0.2290442 -0.0002560816442130293
0.23007949 -0.0002583331435819973
0.23108405 -0.0002524904165410484
0.23206422 -0.0002528547505815165
0.23310059 -0.0002484897504347007
0.23409773 -0.0002515777917248363
0.23510547 -0.0002422880013455142
0.23610152 -0.0002437188322169789
0.23715276 -0.000239780063679973
0.2380608 -0.0002411578403022445
0.23908868 -0.0002354831503655283
0.24011977 -0.0002355317838515065
0.24111263 -0.0002330556956609241
0.24210872 -0.0002350073751371284
0.24314612 -0.0002283192582189652
0.24410295 -0.0002336738285685491
0.24513827 -0.0002293742491272293
0.24614069 -0.0002302002177240565
0.24709752 -0.0002282308291480847
0.24813811 -0.0002282325907193199
0.24912147 -0.0002241364100920389
0.25011227 -0.0002269759687136587
0.251138 -0.0002231274126150617
0.25216118 -0.0002142482791354134
0.25314075 -0.0002176861696688722
0.25414526 -0.0002174872110269161
0.25510532 -0.0002124784073708314
0.25612685 -0.0002137421136833625
0.25717703 -0.0002082805438463864
0.25812319 -0.0002108910547349289
0.25909698 -0.0002031612068170339
0.26007715 -0.0002044001437361151
0.26112202 -0.000199363931547698
0.26215842 -0.0002017144615378027
0.26311946 -0.0001967012405227966
0.26408052 -0.0001983796841184613
0.26509994 -0.000193839578514599
0.26612779 -0.0001938678757937847
0.26708889 -0.0001940889529553009
0.26807541 -0.000188383313836008
0.2691054 -0.0001922796347457724
0.27006435 -0.0001870196902776415
0.27111235 -0.0001886760235770952
0.27208725 -0.0001819489849405414
0.2731342 -0.0001904190255446439
0.27412927 -0.0001813511922219071
0.27512744 -0.0001847841198494074
0.27611503 -0.0001822275579246796
0.27712911 -0.0001802678927636712
0.2780976 -0.0001793941877205421
0.27907139 -0.0001771763184308379
0.28009292 -0.0001816739635229518
0.28111443 -0.0001777033599997443
0.28211474 -0.0001804279606163718
0.28312671 -0.0001776936360692433
0.28409734 -0.0001741589977781483
0.28511038 -0.0001711850307673192
0.2861298 -0.000173487800964267
0.28710994 -0.0001719473119029162
0.28812188 -0.0001680147370690414
0.28908616 -0.0001707835481125935
0.2901448 -0.0001663796370286884
0.29112712 -0.0001678042718127565
0.29216027 -0.0001633968050403682
0.2931298 -0.0001665830195318248
0.29415134 -0.000161201929286234
0.29510498 -0.0001624382014016293
0.29611593 -0.0001635657186701178
0.29718095 -0.0001579281648200019
0.29814309 -0.0001634578351665063
0.29910517 -0.0001563284334764605
0.30011183 -0.0001608446597490202
0.30114508 -0.0001520562700534356
0.30212203 -0.000157197720088536
0.3030757 -0.0001520456664410282
0.30408767 -0.0001544828565063956
0.30509216 -0.0001500055370276712
0.30613175 -0.0001495907883379585
0.30712038 -0.0001480326149874143
0.30813876 -0.0001450887118631767
0.30913058 -0.00014891429133791
0.31009758 -0.0001304161084950406
0.31107071 -0.0001439841901995146
0.31214419 -0.000140329288558721
0.31311482 -0.0001413807474222034
0.31411517 -0.0001398694437059565
0.31514519 -0.0001418131849106881
0.31613699 -0.0001368848598275458
0.31716913 -0.0001348465096882019
0.3181079 -0.0001345785469971535
0.31919625 -0.0001325003924566516
0.32009688 -0.0001318521867506523
0.32111734 -0.000131164188589297
0.32212719 -0.0001306291670775611
0.32318369 -0.0001247802747962447
0.32416067 -0.0001280310332710932
0.32511646 -0.0001204762777607328
0.32615811 -0.0001216594965427472
0.32715315 -0.0001180479315579944
0.32811952 -0.0001209759194874416
0.32917705 -0.0001152578975020587
0.33014879 -0.0001218416715451391
0.33114481 -0.000115715973927245
0.33216426 -0.0001177631836052724
0.33317941 -0.0001125881330605373
0.33418292 -0.000116302280648739
0.33513334 -0.000112795063445267
0.33615696 -0.0001146998925298545
0.33711594 -0.0001113270867673715
0.33819684 -0.0001123502467470258
0.33914521 -0.0001080966634374489
0.34015822 -0.000110297740345149
0.34110332 -0.0001095186477723721
0.34215036 -0.0001072167651806741
0.34310716 -0.0001059778278573729
0.3441627 -0.0001072273714899864
0.34517354 -0.0001042551672219985
0.34607732 -0.0001038775652975548
0.34712222 -0.000103091405165401
0.34813845 -0.0001019860051919683
0.34907833 -0.000101100801398641
0.35010722 -0.00009597792577251433
0.35112986 -0.00009635110743191596
0.35213968 -0.00009314013200878457
0.35317814 -0.0000935318885559866
0.35414138 -0.00008783420997124662
0.35512257 -0.00008948346882162498
0.35616216 -0.0000863255573869434
0.35714972 -0.0000865634365925733
0.35815638 -0.00008563932409089137
0.35916522 -0.00008166253182887795
0.36013049 -0.0000855597316318481
0.36113298 -0.0000786257721987479
0.36211097 -0.0000805836564062982
0.3631781 -0.00007707378785681818
0.36413917 -0.00007754601500763343
0.36514264 -0.00007746553892534107
0.36619392 -0.00007424749450122035
0.36715919 -0.00007572607832410463
0.36815524 -0.00006492968599063406
0.36910465 -0.00007700038326695515
0.37016752 -0.00007250626865840082
0.37116787 -0.00007714364452877172
0.37217134 -0.00006882925896513196
0.37314835 -0.00007193942032499316
0.37416136 -0.00006749923939095264
0.37512878 -0.0000701407095683572
0.3760941 -0.00006828628737388801
0.37720895 -0.00006191651674214427
0.3781743 -0.00006432895063410442
0.37913111 -0.00006042555332502145
0.38014731 -0.00006340925608583326
0.38117734 -0.00005912913788602052
0.38212779 -0.00005960932490249116
0.38311115 -0.00005838100274660149
0.38411674 -0.00005785659926497511
0.38513726 -0.00005400537995904452
0.38614389 -0.00005506391085516619
0.38715479 -0.0000542980896038141
0.38810739 -0.00005368967836005844
0.3891533 -0.00005463324910061183
0.39014089 -0.00005014177956120917
0.39116558 -0.00005298929468880128
0.39216268 -0.00004825375838714123
0.39314184 -0.00005319445807888028
0.39416012 -0.00004815382590884872
0.39519125 -0.00005144084913726782
0.39613214 -0.00004160277274757455
0.39712816 -0.00004569541516730164
0.39816988 -0.00004313530475820308
0.39910015 -0.0000393265327834531
0.40016842 -0.00003794168366392592
0.40115383 -0.00003415590354677929
0.40216267 -0.00003209720409300435
0.40318099 -0.00003067609935511772
0.40415052 -0.0000313269586157775
0.40521982 -0.00002332296861536532
0.40618721 -0.00002845733872547385
0.40718016 -0.00002229361987855026
0.40814328 -0.00002311338415077966
0.40913725 -0.00001768542174810739
0.41014606 -0.00002028709345106944
0.4112004 -0.00001633771503782732
0.4121488 -0.00001675423064642027
0.41316605 -0.00001300647652370388
0.41421944 -0.00001212304019235523
0.41516986 -0.00001045432582537207
0.41623589 -0.000006362569864945964
0.41718218 -0.000008324877622713065
0.41816548 -0.000002960586973996669
0.41917858 -0.000003302820238736293
0.42016611 -0.000001136229236130297
0.42113352 5.696243654541365e-7
0.42215294 0.000002819335987583097
0.42315429 0.000005098234570905639
0.42411438 0.000005039869864849827
0.42513686 0.00001028300775689976
0.4261308 0.000007912699677949477
0.42712694 0.00001095597897698365
0.42814735 0.00001016362594283589
0.42917529 0.00001486910025880498
0.43014482 0.00001632911358982904
0.43112397 0.00001984163652461281
0.4321571 0.00002659785207252219
0.4331595 0.00002567904504028712
0.4341121 0.00003217526774138924
0.43520576 0.00003658272523793848
0.43613079 0.00003528984580785586
0.4370876 0.00004131737723630157
0.43814939 0.00004441958035409732
0.43916884 0.00004856881437308314
0.44016802 0.00005257655635422981
0.4411642 0.00005733685803358912
0.44214535 0.00006155241390517758
0.44318816 0.00006456618589980819
0.44413537 0.00007119417005993782
0.44520459 0.00007464302343862563
0.44619012 0.0000779751470734169
0.44714373 0.00008753908145327683
0.44820029 0.00008710753605593391
0.4491401 0.00009251516131946057
0.45019451 0.00009994699265389594
0.45112696 0.0001043747905929613
0.45216969 0.0001141536131916447
0.45312014 0.0001160301458236452
0.45415542 0.0001248512405709336
0.45517382 0.0001294620919654538
0.4561635 0.0001327031408303965
0.4571521 0.000143253094380371
0.45816201 0.0001482592381291982
0.45912516 0.0001585483052555978
0.4602178 0.0001674551940532686
0.46116719 0.0001717689144634782
0.46218124 0.0001829485080469978
0.46316993 0.0001923789055366695
0.46415114 0.0001996489100343341
0.46516848 0.0002108895223753081
0.4661496 0.0002166756276614666
0.46719554 0.0002282655446050642
0.46817043 0.0002398563414500493
0.46917176 0.0002464250657365288
0.47016791 0.0002588382923312972
0.4712159 0.0002710047775862133
0.47219926 0.0002793262507086391
0.47317836 0.0002920418975362639
0.47418073 0.0003080543313621511
0.4751482 0.0003165013296969246
0.47612414 0.000331312853739342
0.47717115 0.0003475710939034754
0.47817671 0.0003572075336756428
0.47921732 0.0003724390885003629
0.48019856 0.0003909196568909275
0.48118612 0.0004029243105429091
0.48218969 0.0004188933841457283
0.48321009 0.0004411941866288138
0.48418263 0.0004586495838508941
0.48517358 0.0004674267005258196
0.48619932 0.0004913351570697468
0.48718271 0.00050657645174902
0.48821378 0.0005315470722911811
0.48916954 0.0005540273982660455
0.49019951 0.0005746214484234867
0.49118495 0.0006003021609457294
0.49218529 0.0006265912533712668
0.49320891 0.0006482235250283973
0.49420187 0.0006789156467069321
0.49518514 0.0007053426908593501
0.49619076 0.0007309057846719572
0.4971402 0.0007583542427609131
0.49816275 0.0007892868954210517
0.49919283 0.0008183359633322776
0.50019407 0.0008493349452894303
0.50118381 0.0008825651330981715
0.50219047 0.0009162436216582966
0.50320035 0.0009465678416139198
0.50414127 0.0009864188818937726
0.50515962 0.001024577382749053
0.50618011 0.001059183459852245
0.50719208 0.00110444660256488
0.50818378 0.00114290664113368
0.50921392 0.001185475163917242
0.51016432 0.001233699920501548
0.51124215 0.001278311240033268
0.51217979 0.001324856566902285
0.51316315 0.001372817786533335
0.5141964 0.00142449750769124
0.5152083 0.001475870419199058
0.51621932 0.00153257581081966
0.51719195 0.001583896469027324
0.51821035 0.001646135898732207
0.51919156 0.001706575642755425
0.52019179 0.00176434654642638
0.52119851 0.001833980662720732
0.52221155 0.001894942306535079
0.52322996 0.001963667272624058
0.52423763 0.002035155857407111
0.52523267 0.002105286905134569
0.52619696 0.002174125116855274
0.52718234 0.002249333044144607
0.52821028 0.002328348120701996
0.52920526 0.002412160551506934
0.5301705 0.002489460909095617
0.53120804 0.002580974783389443
0.53221357 0.002670246308197323
0.53321713 0.002754719228202415
0.53417498 0.002851341164286073
0.53518707 0.002942318166686983
0.53619683 0.003041020909020323
0.53720993 0.00314752934941176
0.53813165 0.003246284291081897
0.53918397 0.003347210110102126
0.54020554 0.003461253907112757
0.54117614 0.003567494581147912
0.54205704 0.003701103477399395
0.54248846 0.003565469814930111
0.54304624 0.003767382786867939
0.54403383 0.003893264362381566
0.54502571 0.004015310062540162
0.5460875 0.004138645556748893
0.54710054 0.004277369765784689
0.54808599 0.004403115119203008
0.54908413 0.004536154289477658
0.55008978 0.004677461447297708
0.55106777 0.004814355595347798
0.55209041 0.004955130463511329
0.55310881 0.005106136270316933
0.55409741 0.005254550477628912
0.55510306 0.005415938843927704
0.55610859 0.005567263339697936
0.55712485 0.00572885357178167
0.55810714 0.00589296502827593
0.55909264 0.006056413885946507
0.56012577 0.006230472479526523
0.56109214 0.006403381034841837
0.56207019 0.006578421772751995
0.56307262 0.006765845078916755
0.56407505 0.006945885816902669
0.56507856 0.00712440162007828
0.56608629 0.007325572525991871
0.56711417 0.007518316604950497
0.56808579 0.007717013498121456
0.56910419 0.007919367490911954
0.57012141 0.008123758360145276
0.5711112 0.008333100657586745
0.57209027 0.008545670490194557
0.57312232 0.008763346099941519
0.57410574 0.008978006318405611
0.57512939 0.009199354556686662
0.57605755 0.009429941106645856
0.57709289 0.009648196311092004
0.57882756 0.009984050313069065
0.58069742 0.01041214529201778
0.58166808 0.01064881234358638
0.58266932 0.01090318152920294
0.58360076 0.0111513259253116
0.58469969 0.01140018627807475
0.58567452 0.01166376807021963
0.58667058 0.01192036464878282
0.58766663 0.0121734422686536
0.58865958 0.01245058823648529
0.58966625 0.01270722959210012
0.59064853 0.01297448978342197
0.5916425 0.01325394192746092
0.59268093 0.01352595931691923
0.5936718 0.01380884312675337
0.5946635 0.01409062091261153
0.59569257 0.01436893309599127
0.59666419 0.01465881911442712
0.59764755 0.01494665404122014
0.59862763 0.0152404129451801
0.59970433 0.01553952949045481
0.60068882 0.0158262946497417
0.60172826 0.01613253717207254
0.60271269 0.0164307434946144
0.60366422 0.01672693489429861
0.60468149 0.01704251509444371
0.60568613 0.01734924345510094
0.60672671 0.01766654060985376
0.60772282 0.01798586866061669
0.60867 0.01829055562848236
0.6097191 0.01862040755642946
0.61067915 0.01893909108993184
0.61172611 0.0192593225543129
0.61271584 0.01958797157567463
0.6137321 0.01990486786881879
0.61467719 0.02024298547864127
0.6157285 0.0205554011901971
0.61668944 0.02087870025489899
0.61770892 0.02122347663357183
0.61872512 0.02154809390130047
0.619699 0.02187986296323493
0.62067378 0.02222506276060215
0.62165385 0.02255573682487016
0.62267119 0.02288937271805486
0.62365562 0.0232310801802669
0.62466973 0.02357110717922398
0.62571555 0.02390875787306063
0.62671274 0.02425409865908383
0.627729 0.02459263166141085
0.62867731 0.02493089248633228
0.62966913 0.02527008887005244
0.6307289 0.02562077174823378
0.63170266 0.02597348777473803
0.63268065 0.02630487672771176
0.63367671 0.02666349920683489
0.63468879 0.02700712407790384
0.63571346 0.02735308501804767
0.63670105 0.02770481958901261
0.63773423 0.02805256714539905
0.63871753 0.02839141041396132
0.6397391 0.02875034128212276
0.64070219 0.02909514412911246
0.64171535 0.02943389827851217
0.64269435 0.02978039784486297
0.64366394 0.0301290473774618
0.64470243 0.03047636045084789
0.64572394 0.03081834016322532
0.6467095 0.0311708533327974
0.64774048 0.03151189601178184
0.64868033 0.03185670048696918
0.64969659 0.03220623318662141
0.65071803 0.03255366932393786
0.6517185 0.03288785135696859
0.65272504 0.03323819713679976
0.65374446 0.0335705430770759
0.65471828 0.03390493948568796
0.65571004 0.03424136822124846
0.65669769 0.03458234319178821
0.65768307 0.03491631406682771
0.65865064 0.03525109079782851
0.65969539 0.03558407580971501
0.66069889 0.03592006432720368
0.66169608 0.03623661124988276
0.66271544 0.03657257783278411
0.66370308 0.03689356903649045
0.66468632 0.03721317568043664
0.66573763 0.03753462653063877
0.6667496 0.03784879029262822
0.66767448 0.03815552072612471
0.66868657 0.03847433892466756
0.66967201 0.03877822807731324
0.67073494 0.03909128964490582
0.67169172 0.03938924620807593
0.6727376 0.03969544826153049
0.67371041 0.0399879406516753
0.67469794 0.04028945546855955
0.67571002 0.04058277838501256
0.67671764 0.0408697835066253
0.67773175 0.04114837042935604
0.67868757 0.04143562217682817
0.67976838 0.04170559677812802
0.68028462 0.04232134386256814
0.68057591 0.04192772507667542
##END