Ewe/V	<I>/mA	
5.4231662E-001	2.837319916579872E-004
5.4286277E-001	2.609022971032321E-004
5.4385138E-001	6.176312807105577E-004
5.4489839E-001	9.240318610055608E-004
5.4586691E-001	1.192664729690785E-003
5.4686397E-001	1.453401553893251E-003
5.4791099E-001	1.684770996285400E-003
5.4896641E-001	1.922904493262143E-003
5.4984796E-001	2.148867150531773E-003
5.5084401E-001	2.374617455441499E-003
5.5193341E-001	2.579972078011548E-003
5.5289346E-001	2.794030916144649E-003
5.5387139E-001	3.008209882359045E-003
5.5491424E-001	3.216954089010765E-003
5.5591029E-001	3.419207100806593E-003
5.5687565E-001	3.635267916858240E-003
5.5786949E-001	3.842329084161794E-003
5.5886555E-001	4.050304446839931E-003
5.5996352E-001	4.268570707305748E-003
5.6090754E-001	4.480271951858114E-003
5.6186557E-001	4.692778254846222E-003
5.6293577E-001	4.915698903561056E-003
5.6390208E-001	5.125552899698979E-003
5.6497353E-001	5.345043858445350E-003
5.6595576E-001	5.569073502556449E-003
5.6691480E-001	5.793400711910299E-003
5.6793410E-001	6.022848036082010E-003
5.6893229E-001	6.250716878033330E-003
5.6988806E-001	6.485066943342770E-003
5.7091379E-001	6.719395065576668E-003
5.7192796E-001	6.955799902546772E-003
5.7292724E-001	7.195913314515384E-003
5.7390320E-001	7.436544942013124E-003
5.7492459E-001	7.676005770917982E-003
5.7590264E-001	7.926092577690710E-003
5.7688498E-001	8.163108337612371E-003
5.7789063E-001	8.407521790811889E-003
5.7892174E-001	8.667803377546928E-003
5.7986259E-001	8.922475416006341E-003
5.8092862E-001	9.184730875454600E-003
5.8188337E-001	9.441187568882015E-003
5.8358330E-001	9.812590722503962E-003
5.8541888E-001	1.034352386987956E-002
5.8641821E-001	1.063165974321439E-002
5.8738238E-001	1.092694807690955E-002
5.8841771E-001	1.121373936136175E-002
5.8939791E-001	1.150771123340953E-002
5.9041411E-001	1.176892349111675E-002
5.9137732E-001	1.204862348580114E-002
5.9238499E-001	1.234644114123919E-002
5.9333450E-001	1.265418803490726E-002
5.9439939E-001	1.293623168021443E-002
5.9542841E-001	1.324156416214664E-002
5.9641916E-001	1.354120226298822E-002
5.9736747E-001	1.382826890686478E-002
5.9841764E-001	1.413033830532291E-002
5.9944344E-001	1.443929563053345E-002
6.0033447E-001	1.473831315454521E-002
6.0141754E-001	1.503271127472150E-002
6.0240299E-001	1.533211071687726E-002
6.0340434E-001	1.563929889461074E-002
6.0440141E-001	1.595087567855252E-002
6.0542625E-001	1.626474030490505E-002
6.0638833E-001	1.658815391419927E-002
6.0741407E-001	1.691010890741990E-002
6.0842818E-001	1.723913835465082E-002
6.0938495E-001	1.756280877452809E-002
6.1042464E-001	1.789662017836238E-002
6.1141634E-001	1.823648795834745E-002
6.1241668E-001	1.857145834785320E-002
6.1340111E-001	1.889493482950559E-002
6.1438441E-001	1.926338994882021E-002
6.1540067E-001	1.958420461839225E-002
6.1638188E-001	1.989825482370280E-002
6.1741930E-001	2.025773438961359E-002
6.1839634E-001	2.061198021531013E-002
6.1943477E-001	2.097681878755492E-002
6.2039483E-001	2.133356580614218E-002
6.2134737E-001	2.167571526499371E-002
6.2238693E-001	2.199715770742237E-002
6.2341374E-001	2.234162372123034E-002
6.2441719E-001	2.269022945418131E-002
6.2542498E-001	2.303290971030955E-002
6.2638068E-001	2.336010831964414E-002
6.2741822E-001	2.369225772337016E-002
6.2841630E-001	2.401960663458655E-002
6.2940824E-001	2.434418857996612E-002
6.3037670E-001	2.469857447431428E-002
6.3137370E-001	2.502841736390521E-002
6.3240176E-001	2.537771201686062E-002
6.3340831E-001	2.572625331716456E-002
6.3441616E-001	2.606741326033241E-002
6.3540584E-001	2.642089002862735E-002
6.3637853E-001	2.676082052251647E-002
6.3740003E-001	2.711083986408402E-002
6.3843006E-001	2.746049508277795E-002
6.3941348E-001	2.781306176459331E-002
6.4037764E-001	2.815635086800386E-002
6.4144164E-001	2.850675997938709E-002
6.4245045E-001	2.883949221157112E-002
6.4342523E-001	2.920433066255013E-002
6.4446068E-001	2.954545389446947E-002
6.4541739E-001	2.988993073651924E-002
6.4641345E-001	3.023953361197423E-002
6.4745301E-001	3.058343363065634E-002
6.4840883E-001	3.093401872966850E-002
6.4942396E-001	3.128390351452665E-002
6.5043908E-001	3.162646899969934E-002
6.5146387E-001	3.196625553472487E-002
6.5246195E-001	3.231741605041971E-002
6.5339655E-001	3.264904445515843E-002
6.5442657E-001	3.298980495633785E-002
6.5540558E-001	3.331375881680303E-002
6.5643573E-001	3.364943938342757E-002
6.5743810E-001	3.398795506735858E-002
6.5841192E-001	3.430834661486082E-002
6.5942389E-001	3.464504749475364E-002
6.6039866E-001	3.497179576920154E-002
6.6140330E-001	3.529239873427714E-002
6.6234946E-001	3.562751821138799E-002
6.6335195E-001	3.594527312735507E-002
6.6445726E-001	3.626286905879772E-002
6.6542786E-001	3.658576354306836E-002
6.6646534E-001	3.688439991674397E-002
6.6742313E-001	3.716972750650432E-002
6.6838634E-001	3.749062855624493E-002
6.6939622E-001	3.779248858983117E-002
6.7035091E-001	3.809595158802259E-002
6.7140216E-001	3.838675997232932E-002
6.7238963E-001	3.868660243784300E-002
6.7339969E-001	3.899110134484049E-002
6.7445922E-001	3.927621371824186E-002
6.7541724E-001	3.956263567346879E-002
6.7643231E-001	3.983662217312184E-002
6.7743045E-001	4.011911812833407E-002
6.7839587E-001	4.039024341424624E-002
6.7941099E-001	4.065656509677273E-002
6.8039429E-001	4.090677921906008E-002
6.8142962E-001	4.117366549326107E-002
6.8242353E-001	4.143058088569290E-002
6.8345362E-001	4.168295340625461E-002
6.8445814E-001	4.192457428952284E-002
6.8543410E-001	4.217137506283419E-002
6.8642372E-001	4.240712231775334E-002
6.8743891E-001	4.264188644851347E-002
6.8840849E-001	4.287018409943122E-002
6.8938226E-001	4.309148275125263E-002
6.9045371E-001	4.328888517920859E-002
6.9144654E-001	4.351108444583002E-002
6.9240236E-001	4.370107108520133E-002
6.9341856E-001	4.389873441929637E-002
6.9444114E-001	4.409707569155008E-002
6.9534069E-001	4.428248469614328E-002
6.9642895E-001	4.445023159173128E-002
6.9738376E-001	4.463315845350768E-002
6.9842750E-001	4.478912055492411E-002
6.9942254E-001	4.495330953957616E-002
7.0043451E-001	4.509828965011488E-002
7.0137429E-001	4.524805043992183E-002
7.0239592E-001	4.537419625234615E-002
7.0343852E-001	4.550435838043798E-002
7.0443040E-001	4.562374641278055E-002
7.0544988E-001	4.573407290930231E-002
7.0636851E-001	4.582680827136071E-002
7.0741862E-001	4.593631256850352E-002
7.0841151E-001	4.602224444129732E-002
7.0940876E-001	4.610017819666412E-002
7.1043861E-001	4.617506673417279E-002
7.1141243E-001	4.623679213626852E-002
7.1246690E-001	4.628472245207771E-002
7.1342361E-001	4.634002575443863E-002
7.1443146E-001	4.636282021399712E-002
7.1543282E-001	4.638979854967640E-002
7.1645331E-001	4.639923555653679E-002
7.1739107E-001	4.641134372731254E-002
7.1838379E-001	4.639955125619788E-002
7.1944785E-001	4.639054900164630E-002
7.2043437E-001	4.636387184533916E-002
7.2142190E-001	4.634119589981235E-002
7.2244662E-001	4.628497044581725E-002
7.2344369E-001	4.624539526735644E-002
7.2445464E-001	4.618464082401891E-002
7.2541779E-001	4.612386367645960E-002
7.2643942E-001	4.605553344784624E-002
7.2744930E-001	4.597360695738151E-002
7.2841126E-001	4.587838950101297E-002
7.2948062E-001	4.578392680721455E-002
7.3044801E-001	4.566229748242112E-002
7.3139328E-001	4.553529291297331E-002
7.3239982E-001	4.540811262106437E-002
7.3337793E-001	4.526046616956611E-002
7.3439199E-001	4.511646079804954E-002
7.3539978E-001	4.496063401974337E-002
7.3643726E-001	4.479438049990382E-002
7.3745018E-001	4.462050503611381E-002
7.3842406E-001	4.444410534860155E-002
7.3945397E-001	4.426030325056596E-002
7.4040771E-001	4.406744774961324E-002
7.4144620E-001	4.386479095167822E-002
7.4243367E-001	4.366892057522709E-002
7.4342668E-001	4.345327933293053E-002
7.4447250E-001	4.323239201201234E-002
7.4540186E-001	4.301352521805601E-002
7.4643391E-001	4.278881926762151E-002
7.4740982E-001	4.255623587394264E-002
7.4840170E-001	4.232490040077333E-002
7.4942738E-001	4.207874712301429E-002
7.5047016E-001	4.183601296325751E-002
7.5145984E-001	4.159229887106153E-002
7.5246328E-001	4.135364302459924E-002
7.5344145E-001	4.110456751853553E-002
7.5444698E-001	4.086440699110316E-002
7.5543362E-001	4.062162264017394E-002
7.5640416E-001	4.037904748757788E-002
7.5739491E-001	4.013071942932199E-002
7.5844514E-001	3.989531727792295E-002
7.5941461E-001	3.964868324692383E-002
7.6040334E-001	3.941446404981741E-002
7.6143539E-001	3.918054759075568E-002
7.6246333E-001	3.894389853424735E-002
7.6345301E-001	3.870479696262114E-002
7.6447350E-001	3.847806663058406E-002
7.6543450E-001	3.824502652019490E-002
7.6647305E-001	3.801677477571908E-002
7.6745963E-001	3.779268882418463E-002
7.6845247E-001	3.756741016210680E-002
7.6943260E-001	3.735189275660888E-002
7.7042979E-001	3.713544495339094E-002
7.7141947E-001	3.691991816029072E-002
7.7241343E-001	3.670700175765285E-002
7.7342218E-001	3.650187379227848E-002
7.7439755E-001	3.629588384148003E-002
7.7543980E-001	3.608726221460123E-002
7.7643687E-001	3.587976555637512E-002
7.7742767E-001	3.569073747752971E-002
7.7845758E-001	3.549399909873807E-002
7.7942294E-001	3.530847970331613E-002
7.8038400E-001	3.511867404449753E-002
7.8142458E-001	3.493536604219122E-002
7.8242177E-001	3.474680772180588E-002
7.8341675E-001	3.456806290907699E-002
7.8441292E-001	3.439198682382183E-002
7.8545451E-001	3.422379014470311E-002
7.8640699E-001	3.405002227454046E-002
7.8740430E-001	3.388622141533748E-002
7.8846073E-001	3.371838740875122E-002
7.8941756E-001	3.355917288960575E-002
7.9045498E-001	3.340067472567587E-002
7.9145849E-001	3.324096498545248E-002
7.9243761E-001	3.308454684964901E-002
7.9345274E-001	3.293208017324414E-002
7.9438519E-001	3.278435815526698E-002
7.9545981E-001	3.263311182510942E-002
7.9642081E-001	3.249062748121423E-002
7.9745930E-001	3.234741624975068E-002
7.9840767E-001	3.221013113701121E-002
7.9940903E-001	3.207267609023912E-002
8.0041361E-001	3.193623914072924E-002
8.0146915E-001	3.180257999984970E-002
8.0242693E-001	3.167095996387714E-002
8.0346441E-001	3.154284426192239E-002
8.0445945E-001	3.141643005397388E-002
8.0544686E-001	3.128854614462601E-002
8.0647808E-001	3.116835903751464E-002
8.0743802E-001	3.104110011352329E-002
8.0841607E-001	3.092084402709988E-002
8.0936873E-001	3.080127725843351E-002
8.1040925E-001	3.068514988505450E-002
8.1142759E-001	3.057200930521087E-002
8.1238973E-001	3.046213425437205E-002
8.1340492E-001	3.034979953695760E-002
8.1449747E-001	3.024407885742320E-002
8.1545961E-001	3.013787096844883E-002
8.1648111E-001	3.002957690073860E-002
8.1750154E-001	2.992496926809618E-002
8.1845742E-001	2.982238889186803E-002
8.1946719E-001	2.971836387587257E-002
8.2049406E-001	2.961424393611703E-002
8.2145828E-001	2.951609119514220E-002
8.2247448E-001	2.941666450028113E-002
8.2346743E-001	2.931960015687063E-002
8.2446659E-001	2.922464935949787E-002
8.2547444E-001	2.913250914651944E-002
8.2646835E-001	2.904142953371380E-002
8.2748878E-001	2.895143891833463E-002
8.2847220E-001	2.886249097840232E-002
8.2949466E-001	2.877333902223544E-002
8.3052689E-001	2.868882938734408E-002
8.3150762E-001	2.859753002444603E-002
8.3249241E-001	2.851955244679827E-002
8.3348644E-001	2.843511448655697E-002
8.3450049E-001	2.835348697974249E-002
8.3550620E-001	2.826847465864069E-002
8.3650541E-001	2.818611284924881E-002
8.3748031E-001	2.810575028060056E-002
8.3857286E-001	2.802224894629851E-002
8.3948082E-001	2.795060338555941E-002
8.4053212E-001	2.786772058849862E-002
8.4149635E-001	2.779965690246566E-002
8.4250832E-001	2.772228166415724E-002
8.4347576E-001	2.765139836669234E-002
8.4449095E-001	2.757572064648328E-002
8.4550291E-001	2.750457062696433E-002
8.4649676E-001	2.743252814171793E-002
8.4749717E-001	2.736546398146961E-002
8.4851021E-001	2.729262542238264E-002
8.4946483E-001	2.722276608175095E-002
8.5049701E-001	2.715569283302305E-002
8.5150582E-001	2.708641849555232E-002
8.5250616E-001	2.701851367601210E-002
8.5346711E-001	2.695327773108150E-002
8.5445684E-001	2.689283706422431E-002
8.5549110E-001	2.682401182796129E-002
8.5649037E-001	2.676488759688161E-002
8.5746002E-001	2.669929033759727E-002
8.5853237E-001	2.664616884592562E-002
8.5949558E-001	2.657960911488372E-002
8.6048633E-001	2.652191496357170E-002
8.6147815E-001	2.645700790162670E-002
8.6250716E-001	2.639730037642746E-002
8.6350310E-001	2.633810378029014E-002
8.6450243E-001	2.627892671282306E-002
8.6549312E-001	2.622337345059755E-002
8.6648291E-001	2.616569780608793E-002
8.6749381E-001	2.611303701511741E-002
8.6852688E-001	2.605471636504980E-002
8.6949974E-001	2.600229389887937E-002
8.7050843E-001	2.594888975080621E-002
8.7150675E-001	2.589819890110651E-002
8.7251019E-001	2.584366454781659E-002
8.7349564E-001	2.579253114042029E-002
8.7449801E-001	2.574006467087503E-002
8.7547922E-001	2.568825145944081E-002
8.7650090E-001	2.563482112600471E-002
8.7747991E-001	2.559051514253963E-002
8.7852913E-001	2.553355624938075E-002
8.7953895E-001	2.548683555182329E-002
8.8048404E-001	2.543505969838911E-002
8.8153106E-001	2.539091127174381E-002
8.8249946E-001	2.533570470081441E-002
8.8350940E-001	2.529826714211000E-002
8.8449806E-001	2.524630494008312E-002
8.8552582E-001	2.520277702488891E-002
8.8652730E-001	2.515663236651275E-002
8.8751161E-001	2.511479265134159E-002
8.8849288E-001	2.506901806433831E-002
8.8948572E-001	2.502869079439232E-002
8.9047331E-001	2.498757425766804E-002
8.9147788E-001	2.494726769994798E-002
8.9246863E-001	2.489904436839024E-002
8.9349025E-001	2.485905202209129E-002
8.9448512E-001	2.481308507978819E-002
8.9546430E-001	2.477378267374464E-002
8.9648902E-001	2.472917606873026E-002
8.9746487E-001	2.469304009961588E-002
8.9848012E-001	2.464943177862251E-002
8.9949626E-001	2.460781441833312E-002
9.0049344E-001	2.456903386660592E-002
9.0150750E-001	2.452903279239160E-002
9.0246117E-001	2.448833577606518E-002
9.0350395E-001	2.445132398053024E-002
9.0449250E-001	2.441363096295396E-002
9.0548128E-001	2.437694596462997E-002
9.0647304E-001	2.433779465758971E-002
9.0750307E-001	2.430869696480742E-002
9.0851074E-001	2.426414410648364E-002
9.0951216E-001	2.423259542330114E-002
9.1050720E-001	2.419531901573969E-002
9.1152340E-001	2.416045550813173E-002
9.1246217E-001	2.412048221837421E-002
9.1349864E-001	2.408960725652937E-002
9.1453385E-001	2.404660016569943E-002
9.1554165E-001	2.401624668143793E-002
9.1648990E-001	2.397852750113505E-002
9.1751367E-001	2.394320521529558E-002
9.1855198E-001	2.390876547886162E-002
9.1955668E-001	2.387634324905877E-002
9.2052615E-001	2.383672299684914E-002
9.2152858E-001	2.381338916408531E-002
9.2251736E-001	2.377598113283363E-002
9.2352915E-001	2.374566207355305E-002
9.2449337E-001	2.371249559089653E-002
9.2554051E-001	2.368233790750518E-002
9.2649615E-001	2.364675813846084E-002
9.2749441E-001	2.362008316655800E-002
9.2847663E-001	2.358413084099703E-002
9.2952895E-001	2.356376013712086E-002
9.3048894E-001	2.352414873247563E-002
9.3151784E-001	2.349971959645505E-002
9.3245566E-001	2.346418491247781E-002
9.3348354E-001	2.343679222071342E-002
9.3456769E-001	2.340257372189726E-002
9.3547988E-001	2.337429921964135E-002
9.3648022E-001	2.334298054888173E-002
9.3748164E-001	2.331196547311268E-002
9.3854868E-001	2.328044396644052E-002
9.3949825E-001	2.325517374912228E-002
9.4052279E-001	2.321914263787528E-002
9.4151247E-001	2.319460691230948E-002
9.4250435E-001	2.316320143290801E-002
9.4347280E-001	2.314119465881959E-002
9.4447738E-001	2.310593440779483E-002
9.4548827E-001	2.308183040359935E-002
9.4651836E-001	2.305121185943596E-002
9.4749951E-001	2.302937194084138E-002
9.4850713E-001	2.300558209881071E-002
9.4950765E-001	2.297649887946654E-002
9.5051539E-001	2.295155614168226E-002
9.5150506E-001	2.292391682729236E-002
9.5251173E-001	2.289841749977012E-002
9.5351100E-001	2.286969056391785E-002
9.5450699E-001	2.284132670643482E-002
9.5555395E-001	2.281306854759670E-002
9.5657557E-001	2.278429591549674E-002
9.5754087E-001	2.275593999042436E-002
9.5857191E-001	2.273304080719957E-002
9.5954359E-001	2.270267863867856E-002
9.6054500E-001	2.268276730481178E-002
9.6152413E-001	2.265289063183858E-002
9.6256256E-001	2.262961096130321E-002
9.6355438E-001	2.260321625120321E-002
9.6456736E-001	2.258255500863834E-002
9.6551782E-001	2.255363283459000E-002
9.6651614E-001	2.253585262709149E-002
9.6752059E-001	2.250679844291886E-002
9.6850830E-001	2.248395080742846E-002
9.6951061E-001	2.245496705937616E-002
9.7052586E-001	2.243342065937929E-002
9.7149432E-001	2.240445358943877E-002
9.7250938E-001	2.238265968238318E-002
9.7349387E-001	2.235476291389210E-002
9.7449517E-001	2.233259744631760E-002
9.7553164E-001	2.230139388605801E-002
9.7650319E-001	2.228249075576780E-002
9.7754383E-001	2.225882236153776E-002
9.7850287E-001	2.223815888929598E-002
9.7950101E-001	2.221136790144068E-002
9.8050654E-001	2.218699090008171E-002
9.8148364E-001	2.216806086815072E-002
9.8249018E-001	2.214417076255720E-002
9.8352134E-001	2.212460299779201E-002
9.8453534E-001	2.209685743340134E-002
9.8552936E-001	2.207669985687581E-002
9.8655081E-001	2.205300202412125E-002
9.8754060E-001	2.202851156147925E-002
9.8853248E-001	2.200652129734726E-002
9.8951566E-001	2.198232972781022E-002
9.9056286E-001	2.195534492461278E-002
9.9151093E-001	2.193796261659985E-002
9.9251562E-001	2.191451329983674E-002
9.9351597E-001	2.189433710656075E-002
9.9452358E-001	2.186531034951469E-002
9.9552393E-001	2.184917458119651E-002
9.9654227E-001	2.182738669216638E-002
9.9753642E-001	2.180904165046142E-002
9.9853766E-001	2.178553872605941E-002
9.9927294E-001	2.184809604659677E-002
9.9959767E-001	2.166292443871498E-002
9.9969316E-001	2.176998058954877E-002
9.9916458E-001	2.172620332567027E-002
9.9812192E-001	2.166996947036964E-002
9.9713218E-001	2.162718287662663E-002
9.9609149E-001	2.158515758734822E-002
9.9516869E-001	2.154698788945107E-002
9.9415332E-001	2.150652028891883E-002
9.9314046E-001	2.146531756281750E-002
9.9213368E-001	2.142651977838897E-002
9.9112403E-001	2.138963133782260E-002
9.9013633E-001	2.135245152264058E-002
9.8914987E-001	2.132014499673252E-002
9.8807311E-001	2.128118779930654E-002
9.8710984E-001	2.124835800269564E-002
9.8610121E-001	2.121496276231488E-002
9.8514217E-001	2.118442322373287E-002
9.8410785E-001	2.115258340038256E-002
9.8313528E-001	2.112334364857013E-002
9.8212528E-001	2.109310525540625E-002
9.8114204E-001	2.106055030566900E-002
9.8007804E-001	2.102957673681280E-002
9.7910637E-001	2.100070812836452E-002
9.7814959E-001	2.097082371538922E-002
9.7714382E-001	2.093674790942014E-002
9.7610015E-001	2.090952313543920E-002
9.7512317E-001	2.087619948886449E-002
9.7413456E-001	2.084900974781100E-002
9.7315657E-001	2.081893911074276E-002
9.7209680E-001	2.078879761069807E-002
9.7108811E-001	2.076430678910890E-002
9.7006333E-001	2.073571989765494E-002
9.6909267E-001	2.071066240670116E-002
9.6809453E-001	2.068282831977640E-002
9.6710479E-001	2.065696713139512E-002
9.6613532E-001	2.062965524318222E-002
9.6512210E-001	2.060641033393851E-002
9.6417177E-001	2.057437624090308E-002
9.6315241E-001	2.055184671351329E-002
9.6211076E-001	2.052462432604649E-002
9.6115583E-001	2.049777104305894E-002
9.6012384E-001	2.047300476826630E-002
9.5911717E-001	2.045160828371678E-002
9.5814228E-001	2.042174955163839E-002
9.5716751E-001	2.039691200964933E-002
9.5615661E-001	2.037061720329808E-002
9.5508516E-001	2.034772514889496E-002
9.5412517E-001	2.032349976232387E-002
9.5311213E-001	2.030148412611910E-002
9.5210546E-001	2.027545322521807E-002
9.5106268E-001	2.025265883195171E-002
9.5007300E-001	2.023316318486149E-002
9.4911623E-001	2.020912271432793E-002
9.4816029E-001	2.017934104858829E-002
9.4714421E-001	2.015714286244474E-002
9.4606209E-001	2.013825596724117E-002
9.4510758E-001	2.010977626842865E-002
9.4412321E-001	2.008643391471000E-002
9.4310474E-001	2.006252635166883E-002
9.4209808E-001	2.004192470566424E-002
9.4113809E-001	2.001771715812441E-002
9.4013029E-001	1.999616952444847E-002
9.3909508E-001	1.996953664476886E-002
9.3809688E-001	1.995127028688631E-002
9.3709874E-001	1.992935085015948E-002
9.3604958E-001	1.991184422190100E-002
9.3514687E-001	1.989168538259251E-002
9.3410194E-001	1.987018236993919E-002
9.3315148E-001	1.984955420711126E-002
9.3209916E-001	1.983273776487409E-002
9.3110102E-001	1.980773248457512E-002
9.3007427E-001	1.978559313607142E-002
9.2910355E-001	1.976255112741560E-002
9.2810333E-001	1.974401831588093E-002
9.2710298E-001	1.972148232744081E-002
9.2611533E-001	1.970268336784403E-002
9.2514592E-001	1.968138443448378E-002
9.2411685E-001	1.966008497887139E-002
9.2309755E-001	1.964228538660490E-002
9.2209077E-001	1.961764325905193E-002
9.2109787E-001	1.960480611564386E-002
9.2011356E-001	1.958387788100580E-002
9.1914397E-001	1.956791775753822E-002
9.1811508E-001	1.954577837831406E-002
9.1709983E-001	1.952787350617458E-002
9.1611874E-001	1.950951846245317E-002
9.1510886E-001	1.948689961055711E-002
9.1407883E-001	1.946765982817555E-002
9.1310930E-001	1.944830686261423E-002
9.1212904E-001	1.942808489386366E-002
9.1110224E-001	1.940594587682026E-002
9.1013801E-001	1.939224849209295E-002
9.0913236E-001	1.937625544734252E-002
9.0811193E-001	1.935656448606310E-002
9.0707237E-001	1.933417629657525E-002
9.0612936E-001	1.932118767258034E-002
9.0508121E-001	1.930017051765598E-002
9.0410221E-001	1.928580338103028E-002
9.0309656E-001	1.926609489924491E-002
9.0208358E-001	1.924748308374560E-002
9.0109813E-001	1.923230257266884E-002
9.0010518E-001	1.921361878339671E-002
8.9909011E-001	1.919833208537768E-002
8.9807594E-001	1.917597207971594E-002
8.9707887E-001	1.916215034887306E-002
8.9608699E-001	1.913994968829993E-002
8.9509726E-001	1.912457476201879E-002
8.9410549E-001	1.910825224735574E-002
8.9314228E-001	1.908785321090067E-002
8.9202636E-001	1.907232702716199E-002
8.9113951E-001	1.905088670901026E-002
8.9009875E-001	1.904518850861570E-002
8.8906783E-001	1.901475906682517E-002
8.8807702E-001	1.900298138530677E-002
8.8709801E-001	1.898644857283222E-002
8.8608068E-001	1.896728731420202E-002
8.8513869E-001	1.895692532060719E-002
8.8409501E-001	1.893482973618027E-002
8.8312322E-001	1.892749086740281E-002
8.8215899E-001	1.890635051596401E-002
8.8113326E-001	1.889355646239396E-002
8.8012975E-001	1.887415769710471E-002
8.7908709E-001	1.886185884844366E-002
8.7809086E-001	1.883983361605929E-002
8.7708211E-001	1.882687198101653E-002
8.7613273E-001	1.880973651067408E-002
8.7510806E-001	1.879195531202857E-002
8.7409174E-001	1.877564203783147E-002
8.7308097E-001	1.875911792740229E-002
8.7209862E-001	1.874899370725164E-002
8.7106436E-001	1.872631491439988E-002
8.7009704E-001	1.871496114634086E-002
8.6911035E-001	1.869678154374324E-002
8.6809635E-001	1.868512820834045E-002
8.6708969E-001	1.867060228930018E-002
8.6610204E-001	1.865232569818752E-002
8.6509120E-001	1.864045130464052E-002
8.6407810E-001	1.862249407632699E-002
8.6309582E-001	1.861022964294536E-002
8.6210722E-001	1.859298021008743E-002
8.6111957E-001	1.858165348595425E-002
8.6014479E-001	1.856521707021690E-002
8.5910624E-001	1.855263430075471E-002
8.5810274E-001	1.853403316151048E-002
8.5706437E-001	1.852030044149916E-002
8.5611272E-001	1.850371444662527E-002
8.5506368E-001	1.849114910388992E-002
8.5409093E-001	1.846887792311874E-002
8.5302907E-001	1.846064558776567E-002
8.5210729E-001	1.844218415822588E-002
8.5108155E-001	1.843071695313689E-002
8.5008550E-001	1.841545529896405E-002
8.4908402E-001	1.840078687463470E-002
8.4806144E-001	1.838755831219421E-002
8.4711421E-001	1.837636610758231E-002
8.4615207E-001	1.835472083863959E-002
8.4514761E-001	1.834708288273160E-002
8.4411544E-001	1.832758683465530E-002
8.4312785E-001	1.831147589998891E-002
8.4214544E-001	1.829406677603002E-002
8.4109855E-001	1.828527790914658E-002
8.4012371E-001	1.826327103157786E-002
8.3910751E-001	1.825017688032764E-002
8.3813798E-001	1.823729424601581E-002
8.3709615E-001	1.822136908594982E-002
8.3608115E-001	1.820750661782872E-002
8.3508819E-001	1.819833727171906E-002
8.3408797E-001	1.818116620415833E-002
8.3310145E-001	1.816839896491732E-002
8.3210373E-001	1.815892532218380E-002
8.3106256E-001	1.813115753369259E-002
8.3008343E-001	1.812053892030641E-002
8.2912135E-001	1.810116524251913E-002
8.2807332E-001	1.808546324739130E-002
8.2708567E-001	1.806886695461200E-002
8.2608122E-001	1.805681488379679E-002
8.2509136E-001	1.803566505097688E-002
8.2409966E-001	1.802868008477773E-002
8.2311636E-001	1.800871662756751E-002
8.2206619E-001	1.799781371988102E-002
8.2109135E-001	1.798063405537209E-002
8.2005697E-001	1.796688536867616E-002
8.1913620E-001	1.795252728657537E-002
8.1806695E-001	1.793360524364600E-002
8.1709534E-001	1.791810616850857E-002
8.1610245E-001	1.790219942308302E-002
8.1510955E-001	1.788752309221306E-002
8.1403607E-001	1.786757433405413E-002
8.1306010E-001	1.785152768166478E-002
8.1202060E-001	1.783322588016753E-002
8.1100643E-001	1.782258713178131E-002
8.0999768E-001	1.780012967517700E-002
8.0906534E-001	1.778622202497601E-002
8.0801290E-001	1.776870745298870E-002
8.0703813E-001	1.776171222607248E-002
8.0604422E-001	1.773628355456619E-002
8.0503851E-001	1.772347283581954E-002
8.0406052E-001	1.770349045626876E-002
8.0307293E-001	1.768898915260153E-002
8.0203658E-001	1.766453385547118E-002
8.0107433E-001	1.764959872040589E-002
8.0004334E-001	1.762918322250095E-002
7.9900914E-001	1.761081965297409E-002
7.9799813E-001	1.759203015373922E-002
7.9702550E-001	1.757214547413047E-002
7.9602093E-001	1.755543425679217E-002
7.9504180E-001	1.753613363123604E-002
7.9399794E-001	1.751550513694797E-002
7.9302847E-001	1.749831565798060E-002
7.9204619E-001	1.747836838896749E-002
7.9105008E-001	1.745531850772550E-002
7.9003394E-001	1.743643436121706E-002
7.8899115E-001	1.741310057534270E-002
7.8798020E-001	1.739191429482569E-002
7.8702557E-001	1.736587524646904E-002
7.8606337E-001	1.734258719726423E-002
7.8508431E-001	1.731846552057609E-002
7.8405851E-001	1.729971147142362E-002
7.8302431E-001	1.727095960814043E-002
7.8205365E-001	1.725046366239749E-002
7.8105229E-001	1.722029537551056E-002
7.8003085E-001	1.719860682270435E-002
7.7903575E-001	1.717603324019978E-002
7.7805567E-001	1.715225792173047E-002
7.7701718E-001	1.711910177093365E-002
7.7602208E-001	1.709676860870488E-002
7.7497840E-001	1.706660055303177E-002
7.7399766E-001	1.703573344243381E-002
7.7301800E-001	1.700209065650903E-002
7.7197635E-001	1.697166679110121E-002
7.7102482E-001	1.693986164819867E-002
7.7001607E-001	1.690109939631335E-002
7.6903164E-001	1.687582900437223E-002
7.6801759E-001	1.683943665314780E-002
7.6702565E-001	1.680235418381124E-002
7.6601475E-001	1.676554649990677E-002
7.6501763E-001	1.673695127990671E-002
7.6407564E-001	1.669154067187467E-002
7.6307011E-001	1.666207991850872E-002
7.6204109E-001	1.662283941307886E-002
7.6105148E-001	1.658200056570222E-002
7.6006055E-001	1.654135460719575E-002
7.5902104E-001	1.649963044878355E-002
7.5801975E-001	1.645340598770419E-002
7.5702465E-001	1.641210520433055E-002
7.5603718E-001	1.636304270586048E-002
7.5507706E-001	1.631935575278481E-002
7.5401849E-001	1.626386415187475E-002
7.5304681E-001	1.621709136331145E-002
7.5202209E-001	1.616564206779006E-002
7.5103462E-001	1.611159117277977E-002
7.4999601E-001	1.605915122005785E-002
7.4899793E-001	1.600774550913940E-002
7.4805588E-001	1.594324390235773E-002
7.4698657E-001	1.589244753348693E-002
7.4604034E-001	1.582974169610277E-002
7.4501669E-001	1.576973278457042E-002
7.4399948E-001	1.570306695066392E-002
7.4301398E-001	1.564558568740423E-002
7.4199879E-001	1.557534777546399E-002
7.4100494E-001	1.551238566995988E-002
7.4004698E-001	1.543219047016464E-002
7.3900861E-001	1.536618742021448E-002
7.3804522E-001	1.529002381883200E-002
7.3701215E-001	1.521539069653963E-002
7.3601282E-001	1.513352472829871E-002
7.3497647E-001	1.505317960335462E-002
7.3402393E-001	1.496472652070224E-002
7.3302257E-001	1.488482366403335E-002
7.3200637E-001	1.478882009218471E-002
7.3104525E-001	1.470584016674872E-002
7.3004919E-001	1.461188726777138E-002
7.2903305E-001	1.451833276627844E-002
7.2807932E-001	1.442062232510782E-002
7.2703767E-001	1.432002967663321E-002
7.2603619E-001	1.421506029873859E-002
7.2504759E-001	1.411223010816490E-002
7.2411740E-001	1.400773817375822E-002
7.2306609E-001	1.389526253559686E-002
7.2203189E-001	1.377974438057411E-002
7.2101671E-001	1.366519962741430E-002
7.2002381E-001	1.355281162250319E-002
7.1903938E-001	1.342404923262726E-002
7.1802109E-001	1.331125449926027E-002
7.1703672E-001	1.318570162564156E-002
7.1603566E-001	1.304961127829662E-002
7.1506572E-001	1.292070550294338E-002
7.1403253E-001	1.278668190368790E-002
7.1296972E-001	1.264149097712813E-002
7.1202350E-001	1.250264821606434E-002
7.1103162E-001	1.235667979845959E-002
7.1001434E-001	1.220667903382695E-002
7.0896310E-001	1.205838503261075E-002
7.0800531E-001	1.190525409280478E-002
7.0701241E-001	1.175008166804527E-002
7.0599186E-001	1.158375906622192E-002
7.0499265E-001	1.142811737130009E-002
7.0399654E-001	1.125874400895560E-002
7.0301968E-001	1.108525966588381E-002
7.0203835E-001	1.090872489051740E-002
7.0104760E-001	1.073401169883764E-002
6.9997942E-001	1.054286132340269E-002
6.9905967E-001	1.036802405077551E-002
6.9800639E-001	1.017429228765351E-002
6.9701660E-001	9.986573101034291E-003
6.9600046E-001	9.789675764396738E-003
6.9498849E-001	9.599064500232813E-003
6.9399667E-001	9.400054724311442E-003
6.9300061E-001	9.195155337187719E-003
6.9206381E-001	8.988947706206528E-003
6.9102854E-001	8.788646351604257E-003
6.9003254E-001	8.566965243112998E-003
6.8903011E-001	8.358113708608367E-003
6.8803191E-001	8.137794478291938E-003
6.8704855E-001	7.907493945418152E-003
6.8603551E-001	7.679252132220454E-003
6.8504155E-001	7.455874120447945E-003
6.8399143E-001	7.210630042714519E-003
6.8300176E-001	6.986093423216128E-003
6.8198436E-001	6.742051750835469E-003
6.8102121E-001	6.500521165030991E-003
6.7999965E-001	6.257160296728320E-003
6.7903024E-001	6.015550325779878E-003
6.7800444E-001	5.758201708684097E-003
6.7705393E-001	5.503744326738851E-003
6.7603135E-001	5.238323155936114E-003
6.7500556E-001	4.984440868105983E-003
6.7402333E-001	4.711928973039098E-003
6.7225659E-001	3.980371041907335E-003
6.7042506E-001	3.654188946812731E-003
6.6941953E-001	3.381574699637388E-003
6.6840857E-001	3.095651577799202E-003
6.6740721E-001	2.816200630655276E-003
6.6639739E-001	2.532138013824204E-003
6.6544366E-001	2.248437228142101E-003
6.6438615E-001	1.948821288755828E-003
6.6335934E-001	1.659550097732188E-003
6.6243112E-001	1.364789070622567E-003
6.6139054E-001	1.060654999592873E-003
6.6037959E-001	7.609753547765468E-004
6.5941113E-001	4.600382010961660E-004
6.5833062E-001	1.382630864506710E-004
6.5740734E-001	-1.583455596494171E-004
6.5635937E-001	-4.673035432397714E-004
6.5539610E-001	-7.841788657414212E-004
6.5433955E-001	-1.100942824021130E-003
6.5343148E-001	-1.409149078477230E-003
6.5239203E-001	-1.729775752008000E-003
6.5141600E-001	-2.051073548399372E-003
6.5043491E-001	-2.376899132589940E-003
6.4939964E-001	-2.699060038139571E-003
6.4836311E-001	-3.032678248524047E-003
6.4741063E-001	-3.357044613747136E-003
6.4639854E-001	-3.684831407453092E-003
6.4543223E-001	-4.026461731983635E-003
6.4436090E-001	-4.351245654510803E-003
6.4339972E-001	-4.684888619117866E-003
6.4236987E-001	-5.024719210066711E-003
6.4139384E-001	-5.356325500340764E-003
6.4042538E-001	-5.685788070776538E-003
6.3940495E-001	-6.028866541681846E-003
6.3840675E-001	-6.367842843044633E-003
6.3741070E-001	-6.717848321487599E-003
6.3638806E-001	-7.056933979280686E-003
6.3541645E-001	-7.402228946577646E-003
6.3439274E-001	-7.749114375959237E-003
6.3343590E-001	-8.092914038166393E-003
6.3239217E-001	-8.441617735823267E-003
6.3134724E-001	-8.791246166058253E-003
6.3039261E-001	-9.132853416506076E-003
6.2936783E-001	-9.487030111712452E-003
6.2754548E-001	-1.001324309123446E-002
6.2584084E-001	-1.061239240920661E-002
6.2482888E-001	-1.096337472780658E-002
6.2380731E-001	-1.131620542906195E-002
6.2280595E-001	-1.166789537415347E-002
6.2179387E-001	-1.202193715855368E-002
6.2083608E-001	-1.236942780411076E-002
6.1979115E-001	-1.272568878387870E-002
6.1880362E-001	-1.307015520190666E-002
6.1777681E-001	-1.341850366103847E-002
6.1681044E-001	-1.377393388328420E-002
6.1582506E-001	-1.411588853726340E-002
6.1480016E-001	-1.445599631632728E-002
6.1378723E-001	-1.480853539315929E-002
6.1284208E-001	-1.515402711326413E-002
6.1180997E-001	-1.550451462713275E-002
6.1082339E-001	-1.585104140071453E-002
6.0984427E-001	-1.620141391403090E-002
6.0881329E-001	-1.654696915324572E-002
6.0787338E-001	-1.688360067944608E-002
6.0682535E-001	-1.723110941303374E-002
6.0577625E-001	-1.756593696093955E-002
6.0475683E-001	-1.790192409276242E-002
6.0374492E-001	-1.824578982228148E-002
6.0279334E-001	-1.857025714869240E-002
6.0178351E-001	-1.889346703925779E-002
6.0081291E-001	-1.923536076598487E-002
5.9981430E-001	-1.955662653359302E-002
5.9879637E-001	-1.988898748984666E-002
5.9786922E-001	-2.021202127475086E-002
5.9678835E-001	-2.053593135335374E-002
5.9577638E-001	-2.085482838608882E-002
5.9479618E-001	-2.117750912536087E-002
5.9376937E-001	-2.149667067310976E-002
5.9276265E-001	-2.181618523577011E-002
5.9182918E-001	-2.211857406493631E-002
5.9080446E-001	-2.243490588120439E-002
5.8975857E-001	-2.273131642464754E-002
5.8872432E-001	-2.303363506345907E-002
5.8776426E-001	-2.333785263989627E-002
5.8674383E-001	-2.362787109288744E-002
5.8576357E-001	-2.392409689491598E-002
5.8474320E-001	-2.422035901529143E-002
5.8381295E-001	-2.449433002200552E-002
5.8273828E-001	-2.478118223694349E-002
5.8178473E-001	-2.505677178851304E-002
5.8075887E-001	-2.532702976572582E-002
5.7978624E-001	-2.559165394632140E-002
5.7874554E-001	-2.585680045497909E-002
5.7777387E-001	-2.610837456045878E-002
5.7675141E-001	-2.636508812752758E-002
5.7574672E-001	-2.661010076634633E-002
5.7476133E-001	-2.685725484560755E-002
5.7382256E-001	-2.709944775496195E-002
5.7276922E-001	-2.732188957937376E-002
5.7183045E-001	-2.755710721895499E-002
5.7079613E-001	-2.777957530795698E-002
5.6978416E-001	-2.798854237900938E-002
5.6874985E-001	-2.820241615215004E-002
5.6780577E-001	-2.840167264285895E-002
5.6680131E-001	-2.860892527193445E-002
5.6577229E-001	-2.879673300614949E-002
5.6479961E-001	-2.899653958027348E-002
5.6376523E-001	-2.915837848882397E-002
5.6278092E-001	-2.933038544465991E-002
5.6179857E-001	-2.949688488701607E-002
5.6081104E-001	-2.965746926201973E-002
5.5979162E-001	-2.979793065363384E-002
5.5876368E-001	-2.995599381231140E-002
5.5781126E-001	-3.008866409072652E-002
5.5679172E-001	-3.021147613536523E-002
5.5579251E-001	-3.034390025681599E-002
5.5479336E-001	-3.045695994741326E-002
5.5378234E-001	-3.055773899702918E-002
5.5273330E-001	-3.066211534153090E-002
5.5177212E-001	-3.074340776947793E-002
5.5081642E-001	-3.081348693295805E-002
5.4975033E-001	-3.088529871375700E-002
5.4876065E-001	-3.094149824594028E-002
5.4776883E-001	-3.099544181734216E-002
5.4677057E-001	-3.103766908235328E-002
5.4574066E-001	-3.107620227254092E-002
5.4476041E-001	-3.109500043986679E-002
5.4376334E-001	-3.111744913298420E-002
5.4275566E-001	-3.112004904283402E-002
5.4179049E-001	-3.111981275186937E-002
5.4077095E-001	-3.109587421446725E-002
5.3979176E-001	-3.107732388566042E-002
5.3878939E-001	-3.101850243466386E-002
5.3776467E-001	-3.096628121501366E-002
5.3674310E-001	-3.091193030963438E-002
5.3581178E-001	-3.085116137743971E-002
5.3480613E-001	-3.077266445325211E-002
5.3377932E-001	-3.069361802125858E-002
5.3277689E-001	-3.059795999918913E-002
5.3180307E-001	-3.049800430178740E-002
5.3079855E-001	-3.038358993297963E-002
5.2978337E-001	-3.025594305977891E-002
5.2875447E-001	-3.012205057247130E-002
5.2780604E-001	-2.996838122877915E-002
5.2674961E-001	-2.982155565728636E-002
5.2577472E-001	-2.964525824225139E-002
5.2478713E-001	-2.947533846923367E-002
5.2383560E-001	-2.930113693906201E-002
5.2281618E-001	-2.911775866394029E-002
5.2175653E-001	-2.891709610412355E-002
5.2078271E-001	-2.872246048355009E-002
5.1979297E-001	-2.850217825228651E-002
5.1878417E-001	-2.828613724624213E-002
5.1777220E-001	-2.806381081528442E-002
5.1681542E-001	-2.783048557790191E-002
5.1575148E-001	-2.759821327991725E-002
5.1473737E-001	-2.735333230682757E-002
5.1372540E-001	-2.711661936579415E-002
5.1280671E-001	-2.685866155661633E-002
5.1177251E-001	-2.660790810639599E-002
5.1078910E-001	-2.635833260946018E-002
5.0977510E-001	-2.609729601277243E-002
5.0876945E-001	-2.583756906905255E-002
5.0776064E-001	-2.559225515384844E-002
5.0676459E-001	-2.531559704705910E-002
5.0580239E-001	-2.505796471086791E-002
5.0477457E-001	-2.479586952055493E-002
5.0375724E-001	-2.452859152173104E-002
5.0275695E-001	-2.426660026604702E-002
5.0178748E-001	-2.401068451258147E-002
5.0072235E-001	-2.374956900570788E-002
4.9976668E-001	-2.349014223727861E-002
4.9874291E-001	-2.323344161494680E-002
4.9775121E-001	-2.298453491109995E-002
4.9677739E-001	-2.273052917896867E-002
4.9577919E-001	-2.248053766864638E-002
4.9478209E-001	-2.223288041164373E-002
4.9378595E-001	-2.198792754885892E-002
4.9280480E-001	-2.174724616149123E-002
4.9173445E-001	-2.151070082295009E-002
4.9077553E-001	-2.127305282758452E-002
4.8980385E-001	-2.104221141133969E-002
4.8875898E-001	-2.080990333666291E-002
4.8777995E-001	-2.058296952681188E-002
4.8678595E-001	-2.035790269373031E-002
4.8580793E-001	-2.014204915192536E-002
4.8482242E-001	-1.991978086253557E-002
4.8379138E-001	-1.971517651691099E-002
4.8278365E-001	-1.950807710010036E-002
4.8178864E-001	-1.930276131153931E-002
4.8079368E-001	-1.910219487359019E-002
4.7977108E-001	-1.890204301485525E-002
4.7873783E-001	-1.870857697051379E-002
4.7779912E-001	-1.851476572725613E-002
4.7673193E-001	-1.832397791117218E-002
4.7572315E-001	-1.813885822129019E-002
4.7480133E-001	-1.795108584176169E-002
4.7375754E-001	-1.776646863112946E-002
4.7278059E-001	-1.759241962281521E-002
4.7178763E-001	-1.741902283780894E-002
4.7074386E-001	-1.723852806511178E-002
4.6976790E-001	-1.707093166543122E-002
4.6881747E-001	-1.690775719988673E-002
4.6776623E-001	-1.673669496247182E-002
4.6673623E-001	-1.657653541446452E-002
4.6574235E-001	-1.641782496234451E-002
4.6473137E-001	-1.626222835329832E-002
4.6374065E-001	-1.610764697640353E-002
4.6274346E-001	-1.595755056930803E-002
4.6177080E-001	-1.581086560003711E-002
4.6077365E-001	-1.565733721913086E-002
4.5978072E-001	-1.551962500606249E-002
4.5877513E-001	-1.537115479166257E-002
4.5772812E-001	-1.523438969727264E-002
4.5676073E-001	-1.509544154234588E-002
4.5575723E-001	-1.495354033896645E-002
4.5476434E-001	-1.482075436474077E-002
4.5378211E-001	-1.468857905355331E-002
4.5277008E-001	-1.455674746345420E-002
4.5178360E-001	-1.442998346788547E-002
4.5077688E-001	-1.430099099201876E-002
4.4975218E-001	-1.417831120327007E-002
4.4877842E-001	-1.404962892653799E-002
4.4778651E-001	-1.393739954882121E-002
4.4675022E-001	-1.381532121579054E-002
4.4573927E-001	-1.370063475769701E-002
4.4479200E-001	-1.358338469759066E-002
4.4372699E-001	-1.347336650360376E-002
4.4275320E-001	-1.335588634052932E-002
4.4179109E-001	-1.324062423453948E-002
4.4072390E-001	-1.313340957050160E-002
4.3975437E-001	-1.302308192842044E-002
4.3875304E-001	-1.291527384051328E-002
4.3770283E-001	-1.280840326459534E-002
4.3673331E-001	-1.270468097936828E-002
4.3576056E-001	-1.260092269512822E-002
4.3477196E-001	-1.250300961853804E-002
4.3375036E-001	-1.240151437054404E-002
4.3274373E-001	-1.230501582014973E-002
4.3173072E-001	-1.220616455894846E-002
4.3073460E-001	-1.211146098406360E-002
4.2976296E-001	-1.201476704348653E-002
4.2873394E-001	-1.192295453236305E-002
4.2772627E-001	-1.182604802630119E-002
4.2670158E-001	-1.173568517212211E-002
4.2575532E-001	-1.164870544922042E-002
4.2470309E-001	-1.155972584254211E-002
4.2374513E-001	-1.147065384591563E-002
4.2275974E-001	-1.138703720385417E-002
4.2175624E-001	-1.130182939151476E-002
4.2073470E-001	-1.121467572617496E-002
4.1976202E-001	-1.113623105144750E-002
4.1870329E-001	-1.104637244215053E-002
4.1775078E-001	-1.096583278882060E-002
4.1674829E-001	-1.088083690329866E-002
4.1574907E-001	-1.080222463578032E-002
4.1475621E-001	-1.071860809881596E-002
4.1379189E-001	-1.064165809414891E-002
4.1273224E-001	-1.056286081115504E-002
4.1169897E-001	-1.048943887548780E-002
4.1075069E-001	-1.041455755734605E-002
4.0979812E-001	-1.033873055712323E-002
4.0869170E-001	-1.026192144005714E-002
4.0775508E-001	-1.019208076872427E-002
4.0672395E-001	-1.011867609809591E-002
4.0572900E-001	-1.004593453560827E-002
4.0475518E-001	-9.968808473786311E-003
4.0376124E-001	-9.902786603359123E-003
4.0277475E-001	-9.825669319575840E-003
4.0170753E-001	-9.762486082359384E-003
4.0077198E-001	-9.691035491414347E-003
3.9973235E-001	-9.626128775481538E-003
3.9873102E-001	-9.556808715893109E-003
3.9777213E-001	-9.494129594208466E-003
3.9670283E-001	-9.424482876460805E-003
3.9571741E-001	-9.362723413990609E-003
3.9471170E-001	-9.298089640247309E-003
3.9374435E-001	-9.239124118822556E-003
3.9271328E-001	-9.172908142014997E-003
3.9171189E-001	-9.111651948640179E-003
3.9070100E-001	-9.039352798329930E-003
3.8971338E-001	-8.984304401059878E-003
3.8871416E-001	-8.922076016056546E-003
3.8773397E-001	-8.865638739532895E-003
3.8670823E-001	-8.801421378545143E-003
3.8571006E-001	-8.743436241477151E-003
3.8473836E-001	-8.683436677125012E-003
3.8371897E-001	-8.627370705653406E-003
3.8273346E-001	-8.571385193338013E-003
3.8172683E-001	-8.519395394412432E-003
3.8078171E-001	-8.458714366295472E-003
3.7968910E-001	-8.406919403771217E-003
3.7877151E-001	-8.348908443521291E-003
3.7773404E-001	-8.295866938068552E-003
3.7669557E-001	-8.242807583883405E-003
3.7580562E-001	-8.189146372994078E-003
3.7476388E-001	-8.135450349881390E-003
3.7373284E-001	-8.077864350828620E-003
3.7273672E-001	-8.027960750849925E-003
3.7175977E-001	-7.976183736496334E-003
3.7075838E-001	-7.920214951607499E-003
3.6974218E-001	-7.867846106819315E-003
3.6873057E-001	-7.814980128902830E-003
3.6775643E-001	-7.776023487773870E-003
3.6672431E-001	-7.728702228632756E-003
3.6570907E-001	-7.677190276606571E-003
3.6477989E-001	-7.633308938238766E-003
3.6373076E-001	-7.582636543601312E-003
3.6271983E-001	-7.536632555355832E-003
3.6171320E-001	-7.484006410474336E-003
3.6068103E-001	-7.443493754787298E-003
3.5973063E-001	-7.391813363938141E-003
3.5872284E-001	-7.346923796527918E-003
3.5773316E-001	-7.298081598289870E-003
3.5679123E-001	-7.256383800267940E-003
3.5574949E-001	-7.203598421054051E-003
3.5474494E-001	-7.162572897666683E-003
3.5372019E-001	-7.114668082067510E-003
3.5272419E-001	-7.073633478285019E-003
3.5171115E-001	-7.028478713942191E-003
3.5074580E-001	-6.986497927250127E-003
3.4968826E-001	-6.942307049838628E-003
3.4871018E-001	-6.904171926079353E-003
3.4775868E-001	-6.857116083766518E-003
3.4665442E-001	-6.817964963880097E-003
3.4570819E-001	-6.787434487099175E-003
3.4473765E-001	-6.735038163848614E-003
3.4371498E-001	-6.693658738287103E-003
3.4271896E-001	-6.655762957557734E-003
3.4169525E-001	-6.609175271377256E-003
3.4074590E-001	-6.570024064179364E-003
3.3973926E-001	-6.529979598174876E-003
3.3871770E-001	-6.487680635473229E-003
3.3773544E-001	-6.451013852104823E-003
3.3677113E-001	-6.409952708862743E-003
3.3574539E-001	-6.374064184557118E-003
3.3472070E-001	-6.338360841052923E-003
3.3375961E-001	-6.298175006425766E-003
3.3277419E-001	-6.261650103018199E-003
3.3172399E-001	-6.227238047964986E-003
3.3072370E-001	-6.187078469035108E-003
3.2973289E-001	-6.148820082873679E-003
3.2874960E-001	-6.116521130833361E-003
3.2773659E-001	-6.075858159116822E-003
3.2673624E-001	-6.039076178341110E-003
3.2573488E-001	-6.006176112552764E-003
3.2468468E-001	-5.971304174535241E-003
3.2372153E-001	-5.930808808544571E-003
3.2271171E-001	-5.898898631939015E-003
3.2171029E-001	-5.861286158000842E-003
3.2072380E-001	-5.829066876079494E-003
3.1970435E-001	-5.791285836797486E-003
3.1871468E-001	-5.758093519640767E-003
3.1768462E-001	-5.721002679719159E-003
3.1673527E-001	-5.690524840853542E-003
3.1574771E-001	-5.656422518061123E-003
3.1471446E-001	-5.627518364134512E-003
3.1371734E-001	-5.590082448583805E-003
3.1270960E-001	-5.562107210910924E-003
3.1175599E-001	-5.525351685921331E-003
3.1069484E-001	-5.499068475062902E-003
3.0975959E-001	-5.465086373280609E-003
3.0872324E-001	-5.438508321983823E-003
3.0770805E-001	-5.401859118137491E-003
3.0673853E-001	-5.375607487722943E-003
3.0564907E-001	-5.342955165461814E-003
3.0468592E-001	-5.313343795326844E-003
3.0374080E-001	-5.279223761640917E-003
3.0274361E-001	-5.248100566758590E-003
3.0172637E-001	-5.218692733453489E-003
3.0072820E-001	-5.190487617558887E-003
2.9971936E-001	-5.157083627030552E-003
2.9870000E-001	-5.130655264413989E-003
2.9772192E-001	-5.095173240180072E-003
2.9671738E-001	-5.069089977041592E-003
2.9570857E-001	-5.037560410629430E-003
2.9475388E-001	-5.010195209858154E-003
2.9369631E-001	-4.979248973136716E-003
2.9268536E-001	-4.957710445725943E-003
2.9171583E-001	-4.924783464957708E-003
2.9070172E-001	-4.902484539747495E-003
2.8970140E-001	-4.871715287057033E-003
2.8873932E-001	-4.849204366716230E-003
2.8770187E-001	-4.817409008764009E-003
2.8672066E-001	-4.792687786700972E-003
2.8575745E-001	-4.762758099887923E-003
2.8469774E-001	-4.736233106895166E-003
2.8371331E-001	-4.708841304414402E-003
2.8268546E-001	-4.683704073815725E-003
2.8179020E-001	-4.655596152992450E-003
2.7908516E-001	-4.565809528786380E-003
2.7819201E-001	-4.539253271812205E-003
2.7716413E-001	-4.516802357102286E-003
2.7609700E-001	-4.490115779642818E-003
2.7511045E-001	-4.469589859379786E-003
2.7409104E-001	-4.444010052490423E-003
2.7312788E-001	-4.420272545555936E-003
2.7208835E-001	-4.395355803959916E-003
2.7110285E-001	-4.373047943065282E-003
2.7007392E-001	-4.345778088867908E-003
2.6909903E-001	-4.323220783084641E-003
2.6811785E-001	-4.295587564330261E-003
2.6714408E-001	-4.274977194856727E-003
2.6610661E-001	-4.245693027365216E-003
2.6513705E-001	-4.230003722316009E-003
2.6406673E-001	-4.201182498945827E-003
2.6306748E-001	-4.180579490316128E-003
2.6209262E-001	-4.157899528460490E-003
2.6111034E-001	-4.133511416310076E-003
2.6012066E-001	-4.113684999740352E-003
2.5915748E-001	-4.084209623316501E-003
2.5812849E-001	-4.066755019771825E-003
2.5711969E-001	-4.039860229467084E-003
2.5615761E-001	-4.021607988963505E-003
2.5515094E-001	-3.996991891148757E-003
2.5416332E-001	-3.974452243710402E-003
2.5310892E-001	-3.955977675407979E-003
2.5213984E-001	-3.919857360773105E-003
2.5112206E-001	-3.906790034913357E-003
2.5015041E-001	-3.881823921498530E-003
2.4914801E-001	-3.860814890584950E-003
2.4808617E-001	-3.843606947662510E-003
2.4711871E-001	-3.821012362499862E-003
2.4614282E-001	-3.802194161026916E-003
2.4509053E-001	-3.779224654661226E-003
2.4414541E-001	-3.757294451336046E-003
2.4313554E-001	-3.740436687318528E-003
2.4210447E-001	-3.718081031466779E-003
2.4113066E-001	-3.698350060100580E-003
2.4008048E-001	-3.677871874768035E-003
2.3912898E-001	-3.661770998910970E-003
2.3810853E-001	-3.638116275599006E-003
2.3712626E-001	-3.617617725871651E-003
2.3607713E-001	-3.602573688517116E-003
2.3510969E-001	-3.580544196261640E-003
2.3411256E-001	-3.559389561309634E-003
2.3310272E-001	-3.544614348154729E-003
2.3211937E-001	-3.523641684296301E-003
2.3110105E-001	-3.510016886139056E-003
2.3011240E-001	-3.486108325281137E-003
2.2910465E-001	-3.469881953909244E-003
2.2809798E-001	-3.450550825113569E-003
2.2710720E-001	-3.430550949310093E-003
2.2608572E-001	-3.414579161269797E-003
2.2511189E-001	-3.391853181609672E-003
2.2407763E-001	-3.377740969881397E-003
2.2310595E-001	-3.359739823685620E-003
2.2216612E-001	-3.341334391936653E-003
2.2107883E-001	-3.326097580308350E-003
2.2010295E-001	-3.309100108809693E-003
2.1914928E-001	-3.295729223383285E-003
2.1812987E-001	-3.273050747642017E-003
2.1715289E-001	-3.261382197403384E-003
2.1614942E-001	-3.245341314646381E-003
2.1513002E-001	-3.224572201159188E-003
2.1414456E-001	-3.208724230717060E-003
2.1312939E-001	-3.189477131753739E-003
2.1210150E-001	-3.176165332762240E-003
2.1105450E-001	-3.159237732486664E-003
2.1011254E-001	-3.143102446200721E-003
2.0910905E-001	-3.125939467685777E-003
2.0813316E-001	-3.107796694166602E-003
2.0713921E-001	-3.091742772893560E-003
2.0614630E-001	-3.073714951016066E-003
2.0511842E-001	-3.060200985702158E-003
2.0412023E-001	-3.043217398953857E-003
2.0309235E-001	-3.028337898083707E-003
2.0207295E-001	-3.007364432050953E-003
2.0109278E-001	-2.993080925888431E-003
2.0005322E-001	-2.977108132755448E-003
1.9909638E-001	-2.962921006757012E-003
1.9806957E-001	-2.950351352006289E-003
1.9710535E-001	-2.928291135605006E-003
1.9613366E-001	-2.919612395999128E-003
1.9509409E-001	-2.898890063281404E-003
1.9408345E-001	-2.883503696672387E-003
1.9313273E-001	-2.869704805561916E-003
1.9212182E-001	-2.856298375061465E-003
1.9107483E-001	-2.840784821981083E-003
1.9005330E-001	-2.830621266993041E-003
1.8907101E-001	-2.817617506783185E-003
1.8808554E-001	-2.797229476224539E-003
1.8711494E-001	-2.788056339947310E-003
1.8603401E-001	-2.771689245289748E-003
1.8510586E-001	-2.759730543807057E-003
1.8412250E-001	-2.741390673691058E-003
1.8312430E-001	-2.731567661814743E-003
1.8213779E-001	-2.715798513842540E-003
1.8111733E-001	-2.703746029106276E-003
1.8011810E-001	-2.686444241893085E-003
1.7916764E-001	-2.674701302061683E-003
1.7813867E-001	-2.656849469025870E-003
1.7711502E-001	-2.644541692764794E-003
1.7610727E-001	-2.631048584993939E-003
1.7516108E-001	-2.615220294198160E-003
1.7413214E-001	-2.602241880190866E-003
1.7314668E-001	-2.588801860838416E-003
1.7207104E-001	-2.576612423783643E-003
1.7107603E-001	-2.563693366634350E-003
1.7006616E-001	-2.552359056911264E-003
1.6911466E-001	-2.538125864197757E-003
1.6811436E-001	-2.529596714642441E-003
1.6710767E-001	-2.513249134911646E-003
1.6608614E-001	-2.505972837348554E-003
1.6511872E-001	-2.489814700917720E-003
1.6411945E-001	-2.482246551153356E-003
1.6312341E-001	-2.463815665073019E-003
1.6207325E-001	-2.455864551747147E-003
1.6108142E-001	-2.437060538593674E-003
1.6009277E-001	-2.425531573357547E-003
1.5909138E-001	-2.410664371685307E-003
1.5812290E-001	-2.402157274344870E-003
1.5710562E-001	-2.384838710996623E-003
1.5606925E-001	-2.377756956775549E-003
1.5508698E-001	-2.364540843700517E-003
1.5406862E-001	-2.357365390909964E-003
1.5308635E-001	-2.343698335405653E-003
1.5211467E-001	-2.334507481767403E-003
1.5106027E-001	-2.321323981151278E-003
1.5005572E-001	-2.309583807194334E-003
1.4911163E-001	-2.293493530588511E-003
1.4811131E-001	-2.283714769267430E-003
1.4709401E-001	-2.272291124528333E-003
1.4609584E-001	-2.258324156880709E-003
1.4511888E-001	-2.247930699619854E-003
1.4410584E-001	-2.237387851184595E-003
1.4311931E-001	-2.225222146282457E-003
1.4216460E-001	-2.216031377934594E-003
1.4112929E-001	-2.208986992829723E-003
1.4009717E-001	-2.197250972231918E-003
1.3913929E-001	-2.187426170874252E-003
1.3811988E-001	-2.175724854977381E-003
1.3711214E-001	-2.166478498919690E-003
1.3616912E-001	-2.152092230276279E-003
1.3510092E-001	-2.142083627404640E-003
1.3408574E-001	-2.131873077612700E-003
1.3310984E-001	-2.120906786027880E-003
1.3207665E-001	-2.106963484240824E-003
1.3108587E-001	-2.096453612264466E-003
1.3009405E-001	-2.087282964971052E-003
1.2908949E-001	-2.080700198550597E-003
1.2811889E-001	-2.070923144452130E-003
1.2711115E-001	-2.065894732772390E-003
1.2610237E-001	-2.052453261664290E-003
1.2507340E-001	-2.041283370191292E-003
1.2413567E-001	-2.030365405719029E-003
1.2308020E-001	-2.021081910344134E-003
1.2207565E-001	-2.006261472464153E-003
1.2108914E-001	-1.996905301590830E-003
1.2008565E-001	-1.986779875854452E-003
1.1907474E-001	-1.980666506319208E-003
1.1812957E-001	-1.971692460453291E-003
1.1709426E-001	-1.964752411772172E-003
1.1607592E-001	-1.954453496384501E-003
1.1511910E-001	-1.947572530904530E-003
1.1407530E-001	-1.934817910700479E-003
1.1308029E-001	-1.928098924003682E-003
1.1209483E-001	-1.914710196211269E-003
1.1106908E-001	-1.908815365722044E-003
1.1012498E-001	-1.894968640347841E-003
1.0910026E-001	-1.887860427814300E-003
1.0806390E-001	-1.876894016580376E-003
1.0711449E-001	-1.870003428444351E-003
1.0605902E-001	-1.856985290942241E-003
1.0509373E-001	-1.850482006072213E-003
1.0412204E-001	-1.839229002750164E-003
1.0310052E-001	-1.841917338525595E-003
1.0211931E-001	-1.828503875609989E-003
1.0109778E-001	-1.819368954076913E-003
1.0010596E-001	-1.815637941945171E-003
9.9125795E-002	-1.804222183434630E-003
9.8108515E-002	-1.797780809384770E-003
9.7149581E-002	-1.786084861224582E-003
9.6106835E-002	-1.781739315548394E-003
9.5034391E-002	-1.768784876326708E-003
9.4053172E-002	-1.764015696304938E-003
9.3138792E-002	-1.754490641360476E-003
9.2100278E-002	-1.743785892560683E-003
9.1133922E-002	-1.738623350825539E-003
9.0079516E-002	-1.726212744668169E-003
8.9126937E-002	-1.722013039600116E-003
8.8103279E-002	-1.708468835002148E-003
8.7069035E-002	-1.703354822792685E-003
8.6071901E-002	-1.692502369628014E-003
8.5086450E-002	-1.685929257999094E-003
8.4100984E-002	-1.678581464653278E-003
8.3079450E-002	-1.669887643705199E-003
8.2127944E-002	-1.668013728602900E-003
8.1072479E-002	-1.657069406165735E-003
8.0085948E-002	-1.655562549583715E-003
7.9046391E-002	-1.647160609031236E-003
7.8081243E-002	-1.643181463257676E-003
7.7122152E-002	-1.631817679885390E-003
7.6076224E-002	-1.628665957165734E-003
7.5076967E-002	-1.622579146492671E-003
7.4128635E-002	-1.613973797146982E-003
7.3103927E-002	-1.608324790746943E-003
7.2039977E-002	-1.597388348778220E-003
7.1088456E-002	-1.595089990385330E-003
7.0061624E-002	-1.582254059333836E-003
6.9076166E-002	-1.576256597420271E-003
6.8073735E-002	-1.566113476049694E-003
6.7077667E-002	-1.560819839141910E-003
6.6090092E-002	-1.555162058442264E-003
6.5085530E-002	-1.547671761727539E-003
6.4103261E-002	-1.546059714706238E-003
6.3117795E-002	-1.535753825515310E-003
6.2090967E-002	-1.533305106830890E-003
6.1081108E-002	-1.522530617977386E-003
6.0128540E-002	-1.521562250066682E-003
5.9087910E-002	-1.510219902027326E-003
5.8149122E-002	-1.507479417644689E-003
5.7144575E-002	-1.497204531915486E-003
5.6152750E-002	-1.488826468832678E-003
5.5093035E-002	-1.484005138283665E-003
5.4100156E-002	-1.474719773088714E-003
5.3108323E-002	-1.470284876328754E-003
5.2128170E-002	-1.461827231145837E-003
5.1083308E-002	-1.457064279545900E-003
5.0072391E-002	-1.447148417052326E-003
4.9091171E-002	-1.447980523658366E-003
4.8121624E-002	-1.439505161619704E-003
4.7110710E-002	-1.436938918535212E-003
4.6107210E-002	-1.430862650017337E-003
4.5048561E-002	-1.427261735039385E-003
4.4056736E-002	-1.418730756692337E-003
4.3085061E-002	-1.412531674254244E-003
4.2109154E-002	-1.408106517070942E-003
4.1057926E-002	-1.400140484090824E-003
4.0040638E-002	-1.394519715985452E-003
3.9123073E-002	-1.384609141193016E-003
3.8115337E-002	-1.379857703593893E-003
3.7102297E-002	-1.374702977854112E-003
3.6042579E-002	-1.368296169251451E-003
3.5078339E-002	-1.364826875942526E-003
3.4076966E-002	-1.357472012083838E-003
3.3085141E-002	-1.353567770012071E-003
3.2099683E-002	-1.346147483976283E-003
3.1089820E-002	-1.340612386532790E-003
3.0041778E-002	-1.338566096920761E-003
2.9088140E-002	-1.327665052485822E-003
2.8051766E-002	-1.328412354471056E-003
2.7106615E-002	-1.320347344517355E-003
2.6136005E-002	-1.313929782655676E-003
2.5097506E-002	-1.310558852815618E-003
2.4110986E-002	-1.304751457003778E-003
2.3121282E-002	-1.300678258606540E-003
2.2175070E-002	-1.291763407708559E-003
2.1145059E-002	-1.291037387697237E-003
2.0117169E-002	-1.290717297059825E-003
1.9132769E-002	-1.282131338888982E-003
1.8104877E-002	-1.280437074152960E-003
1.7070623E-002	-1.273973515102018E-003
1.6101075E-002	-1.267428650256379E-003
1.5061517E-002	-1.265795368858048E-003
1.4104698E-002	-1.256649694065942E-003
1.3089536E-002	-1.255206416721591E-003
1.2124230E-002	-1.249442448069100E-003
1.1087853E-002	-1.243544077321228E-003
1.0118306E-002	-1.240370284095758E-003
9.1328453E-003	-1.232704915613180E-003
8.0837402E-003	-1.229160594347274E-003
7.0844898E-003	-1.224538223747608E-003
6.0332618E-003	-1.220588876195604E-003
5.0912937E-003	-1.219730199712402E-003
4.0390054E-003	-1.210558031945964E-003
3.1235563E-003	-1.209286362609420E-003
2.0680854E-003	-1.205449260649197E-003
1.0561062E-003	-1.200760604458783E-003
9.0801230E-005	-1.198550678458961E-003
-4.8626037E-004	-1.225189092413833E-003
7.8071913E-005	-1.173068975226161E-003
1.0900513E-003	-1.156438456948506E-003
2.0383839E-003	-1.146291690727393E-003
3.1193134E-003	-1.136326342930258E-003
4.0623420E-003	-1.120700357912735E-003
5.0955364E-003	-1.116060275409019E-003
6.0820580E-003	-1.104297950708617E-003
7.0516057E-003	-1.096821065806984E-003
8.0614621E-003	-1.086425807039226E-003
9.0479841E-003	-1.078660585941782E-003
1.0120427E-002	-1.071824763231335E-003
1.1059213E-002	-1.062277669209126E-003
1.2083922E-002	-1.055949402850979E-003
1.3106509E-002	-1.043846684499129E-003
1.4079238E-002	-1.037756340034923E-003
1.5065759E-002	-1.024081153142712E-003
1.6075615E-002	-1.021467105197689E-003
1.7082293E-002	-1.011799657741596E-003
1.8053962E-002	-1.005619185636734E-003
1.9112613E-002	-9.986268952262463E-004
2.0112960E-002	-9.886036485193365E-004
2.1037921E-002	-9.802869640730552E-004
2.2109304E-002	-9.757370357369351E-004
2.3087339E-002	-9.646352564232023E-004
2.4114165E-002	-9.560900781859054E-004
2.5090082E-002	-9.565419390027176E-004
2.6112668E-002	-9.474175260240567E-004
2.7066305E-002	-9.430011953352538E-004
2.8031610E-002	-9.367941489068030E-004
2.9083900E-002	-9.340350499971649E-004
3.0079966E-002	-9.213831086627641E-004
3.1019812E-002	-9.217801453915951E-004
3.2080587E-002	-9.152502941307990E-004
3.3075593E-002	-9.084428053130165E-004
3.4020741E-002	-8.991185334505424E-004
3.5095308E-002	-8.951099046296601E-004
3.6058489E-002	-8.914735802439573E-004
3.7067283E-002	-8.815099092013643E-004
3.8066544E-002	-8.759263263932050E-004
3.9056245E-002	-8.697245313366367E-004
4.0083073E-002	-8.647034074379528E-004
4.1116264E-002	-8.550828648468366E-004
4.2085811E-002	-8.514111535886347E-004
4.3080825E-002	-8.454021811606519E-004
4.4065218E-002	-8.388803093010982E-004
4.5101598E-002	-8.371682882473887E-004
4.6091296E-002	-8.256703324352396E-004
4.7062971E-002	-8.255306167181194E-004
4.8108898E-002	-8.198011155400309E-004
4.9096476E-002	-8.146436948158618E-004
5.0077692E-002	-8.127327457461628E-004
5.1092856E-002	-7.997313948888175E-004
5.2099530E-002	-8.019705182960024E-004
5.3098779E-002	-7.958686902485247E-004
5.4093789E-002	-7.891089591996383E-004
5.5052727E-002	-7.884466197336003E-004
5.6072131E-002	-7.789074365468348E-004
5.7110626E-002	-7.765533604874144E-004
5.8096088E-002	-7.718532332950806E-004
5.9132464E-002	-7.690561039655434E-004
6.0071256E-002	-7.639588823419915E-004
6.1104443E-002	-7.591260774562278E-004
6.2093087E-002	-7.541499823370628E-004
6.3061573E-002	-7.486539112101613E-004
6.4128712E-002	-7.424503926611384E-004
6.5120541E-002	-7.448973413678082E-004
6.6061452E-002	-7.332976770157975E-004
6.7086153E-002	-7.314574278704301E-004
6.8082221E-002	-7.274779844818891E-004
6.9048598E-002	-7.172181009183175E-004
7.0073299E-002	-7.206209718586016E-004
7.1112864E-002	-7.132217983275438E-004
7.2106794E-002	-7.066318752448645E-004
7.3096506E-002	-7.075603967273791E-004
7.4021503E-002	-6.949765153068353E-004
7.5038783E-002	-7.006158366999037E-004
7.6097436E-002	-6.930796177281665E-004
7.7122152E-002	-6.866426392662054E-004
7.8096233E-002	-6.886188140345076E-004
7.9087764E-002	-6.768771327187988E-004
8.0101870E-002	-6.754471775012559E-004
8.1071407E-002	-6.682284333186946E-004
8.2090817E-002	-6.652933907894780E-004
8.3042324E-002	-6.634928939395950E-004
8.4099919E-002	-6.514210159972791E-004
8.5066281E-002	-6.559089998113936E-004
8.6114332E-002	-6.474742893563708E-004
8.7089188E-002	-6.472329198206530E-004
8.8076763E-002	-6.412717078900538E-004
8.9108899E-002	-6.348152442620233E-004
9.0106025E-002	-6.377352761875142E-004
9.1074519E-002	-6.280961648472924E-004
9.2083313E-002	-6.264840574456455E-004
9.3079388E-002	-6.204618220080086E-004
9.4080754E-002	-6.173464134412304E-004
9.5084243E-002	-6.146827914663929E-004
9.6100472E-002	-6.096289309122493E-004
9.7132601E-002	-6.061738666984524E-004
9.8130785E-002	-5.997766894425805E-004
9.9096112E-002	-5.997661051979873E-004
1.0009534E-001	-5.903851636806690E-004
1.0114445E-001	-5.912624622699970E-004
1.0211506E-001	-5.874537039542490E-004
1.0312492E-001	-5.815773581364036E-004
1.0409553E-001	-5.787625418633953E-004
1.0513084E-001	-5.725280702285496E-004
1.0614177E-001	-5.700343337290779E-004
1.0711662E-001	-5.671549237781098E-004
1.0803207E-001	-5.620444772678913E-004
1.0909708E-001	-5.590218807153850E-004
1.1004329E-001	-5.616748209781174E-004
1.1111255E-001	-5.526007752097128E-004
1.1205346E-001	-5.551989411035014E-004
1.1308029E-001	-5.488185594357566E-004
1.1408484E-001	-5.488990360239150E-004
1.1508304E-001	-5.429882306139484E-004
1.1608335E-001	-5.411665196233012E-004
1.1710276E-001	-5.382995675770642E-004
1.1806700E-001	-5.413026737339042E-004
1.1905457E-001	-5.317529185301980E-004
1.2005064E-001	-5.317697030528096E-004
1.2111142E-001	-5.288550204972523E-004
1.2209582E-001	-5.223243043069982E-004
1.2305156E-001	-5.252089492084147E-004
1.2409219E-001	-5.178991297927690E-004
1.2513918E-001	-5.181334697176151E-004
1.2608325E-001	-5.093486268682064E-004
1.2705599E-001	-5.098093580879022E-004
1.2810086E-001	-5.011129728447698E-004
1.2912981E-001	-5.006283365926525E-004
1.3011421E-001	-4.962040568948891E-004
1.3109331E-001	-4.959546834268393E-004
1.3208619E-001	-4.913827374619173E-004
1.3313423E-001	-4.890402064777121E-004
1.3407302E-001	-4.840791461396686E-004
1.3509454E-001	-4.805250607660128E-004
1.3606305E-001	-4.819354349810054E-004
1.3711958E-001	-4.747893317976881E-004
1.3808168E-001	-4.654164244534010E-004
1.3913822E-001	-4.661194453142851E-004
1.4008549E-001	-4.613715282175677E-004
1.4111444E-001	-4.615050664950899E-004
1.4214446E-001	-4.568411633398602E-004
1.4310658E-001	-4.548045663391848E-004
1.4412068E-001	-4.505571722953974E-004
1.4512736E-001	-4.503246047230878E-004
1.4607568E-001	-4.468739636346673E-004
1.4704631E-001	-4.470985860633740E-004
1.4808482E-001	-4.425275177860986E-004
1.4908829E-001	-4.416095990664951E-004
1.5008435E-001	-4.373073937181809E-004
1.5108573E-001	-4.386957494059763E-004
1.5207225E-001	-4.295138775079164E-004
1.5307789E-001	-4.365159119667332E-004
1.5409622E-001	-4.276346774076947E-004
1.5510395E-001	-4.265779195470193E-004
1.5609893E-001	-4.216327917371627E-004
1.5708759E-001	-4.246385800949293E-004
1.5808684E-001	-4.171139249441094E-004
1.5907973E-001	-4.157909685192044E-004
1.6010551E-001	-4.129867768369868E-004
1.6106232E-001	-4.107016839043354E-004
1.6209127E-001	-4.068460528843488E-004
1.6307460E-001	-4.044079692246458E-004
1.6410249E-001	-3.996680289270020E-004
1.6511342E-001	-3.938217762172102E-004
1.6608612E-001	-3.949563543604508E-004
1.6712357E-001	-3.916445976351996E-004
1.6810159E-001	-3.900023691585366E-004
1.6910404E-001	-3.855295010200478E-004
1.7014362E-001	-3.814359757446564E-004
1.7110576E-001	-3.803102202305630E-004
1.7211454E-001	-3.796124894708754E-004
1.7307134E-001	-3.755295826219167E-004
1.7411408E-001	-3.781975786094128E-004
1.7514515E-001	-3.736689597594193E-004
1.7611472E-001	-3.734390524591106E-004
1.7713517E-001	-3.689555275943543E-004
1.7811428E-001	-3.697169495100955E-004
1.7914747E-001	-3.655287945447411E-004
1.8012443E-001	-3.664299211120826E-004
1.8110672E-001	-3.633754700634504E-004
1.8213251E-001	-3.606048942906949E-004
1.8312857E-001	-3.569402606697408E-004
1.8405990E-001	-3.561912384763355E-004
1.8512811E-001	-3.515839382796696E-004
1.8608917E-001	-3.500363649588194E-004
1.8714041E-001	-3.453998647778959E-004
1.8808132E-001	-3.451929421266356E-004
1.8908376E-001	-3.382580817338342E-004
1.9011587E-001	-3.407916627035466E-004
1.9108436E-001	-3.331900472352970E-004
1.9212817E-001	-3.337038523214786E-004
1.9310409E-001	-3.278107009236919E-004
1.9409260E-001	-3.322388921658016E-004
1.9510895E-001	-3.226692835672416E-004
1.9604984E-001	-3.216867960544631E-004
1.9711170E-001	-3.157344284292979E-004
1.9809927E-001	-3.138738052004754E-004
1.9911127E-001	-3.132353316964824E-004
2.0007338E-001	-3.128488800206884E-004
2.0111823E-001	-3.089339825995312E-004
2.0207080E-001	-3.079736202633067E-004
2.0307642E-001	-3.072449465611892E-004
2.0411919E-001	-3.088791744529657E-004
2.0515238E-001	-3.019354648409302E-004
2.0609966E-001	-3.051561773696034E-004
2.0712432E-001	-2.991825867361009E-004
2.0813632E-001	-3.008442323309479E-004
2.0912178E-001	-2.933920496591071E-004
2.1013907E-001	-2.960361721054345E-004
2.1109590E-001	-2.914580497619884E-004
2.1210469E-001	-2.933672822614929E-004
2.1307954E-001	-2.867357663818525E-004
2.1412651E-001	-2.858364209461983E-004
2.1510562E-001	-2.801422774862464E-004
2.1611336E-001	-2.812450093188091E-004
2.1714549E-001	-2.727581811667627E-004
2.1814471E-001	-2.738193688729645E-004
2.1908352E-001	-2.723027655646445E-004
2.2011352E-001	-2.732817012732380E-004
2.2110747E-001	-2.694808729302159E-004
2.2209293E-001	-2.706720642638378E-004
2.2308689E-001	-2.634789909608222E-004
2.2409885E-001	-2.720038696300739E-004
2.2508113E-001	-2.638902133816779E-004
2.2610797E-001	-2.648037217467293E-004
2.2708814E-001	-2.611603034286718E-004
2.2813194E-001	-2.614079236435726E-004
2.2904420E-001	-2.560816442130293E-004
2.3007949E-001	-2.583331435819973E-004
2.3108405E-001	-2.524904165410484E-004
2.3206422E-001	-2.528547505815165E-004
2.3310059E-001	-2.484897504347007E-004
2.3409773E-001	-2.515777917248363E-004
2.3510547E-001	-2.422880013455142E-004
2.3610152E-001	-2.437188322169789E-004
2.3715276E-001	-2.397800636799730E-004
2.3806080E-001	-2.411578403022445E-004
2.3908868E-001	-2.354831503655283E-004
2.4011977E-001	-2.355317838515065E-004
2.4111263E-001	-2.330556956609241E-004
2.4210872E-001	-2.350073751371284E-004
2.4314612E-001	-2.283192582189652E-004
2.4410295E-001	-2.336738285685491E-004
2.4513827E-001	-2.293742491272293E-004
2.4614069E-001	-2.302002177240565E-004
2.4709752E-001	-2.282308291480847E-004
2.4813811E-001	-2.282325907193199E-004
2.4912147E-001	-2.241364100920389E-004
2.5011227E-001	-2.269759687136587E-004
2.5113800E-001	-2.231274126150617E-004
2.5216118E-001	-2.142482791354134E-004
2.5314075E-001	-2.176861696688722E-004
2.5414526E-001	-2.174872110269161E-004
2.5510532E-001	-2.124784073708314E-004
2.5612685E-001	-2.137421136833625E-004
2.5717703E-001	-2.082805438463864E-004
2.5812319E-001	-2.108910547349289E-004
2.5909698E-001	-2.031612068170339E-004
2.6007715E-001	-2.044001437361151E-004
2.6112202E-001	-1.993639315476980E-004
2.6215842E-001	-2.017144615378027E-004
2.6311946E-001	-1.967012405227966E-004
2.6408052E-001	-1.983796841184613E-004
2.6509994E-001	-1.938395785145990E-004
2.6612779E-001	-1.938678757937847E-004
2.6708889E-001	-1.940889529553009E-004
2.6807541E-001	-1.883833138360080E-004
2.6910540E-001	-1.922796347457724E-004
2.7006435E-001	-1.870196902776415E-004
2.7111235E-001	-1.886760235770952E-004
2.7208725E-001	-1.819489849405414E-004
2.7313420E-001	-1.904190255446439E-004
2.7412927E-001	-1.813511922219071E-004
2.7512744E-001	-1.847841198494074E-004
2.7611503E-001	-1.822275579246796E-004
2.7712911E-001	-1.802678927636712E-004
2.7809760E-001	-1.793941877205421E-004
2.7907139E-001	-1.771763184308379E-004
2.8009292E-001	-1.816739635229518E-004
2.8111443E-001	-1.777033599997443E-004
2.8211474E-001	-1.804279606163718E-004
2.8312671E-001	-1.776936360692433E-004
2.8409734E-001	-1.741589977781483E-004
2.8511038E-001	-1.711850307673192E-004
2.8612980E-001	-1.734878009642670E-004
2.8710994E-001	-1.719473119029162E-004
2.8812188E-001	-1.680147370690414E-004
2.8908616E-001	-1.707835481125935E-004
2.9014480E-001	-1.663796370286884E-004
2.9112712E-001	-1.678042718127565E-004
2.9216027E-001	-1.633968050403682E-004
2.9312980E-001	-1.665830195318248E-004
2.9415134E-001	-1.612019292862340E-004
2.9510498E-001	-1.624382014016293E-004
2.9611593E-001	-1.635657186701178E-004
2.9718095E-001	-1.579281648200019E-004
2.9814309E-001	-1.634578351665063E-004
2.9910517E-001	-1.563284334764605E-004
3.0011183E-001	-1.608446597490202E-004
3.0114508E-001	-1.520562700534356E-004
3.0212203E-001	-1.571977200885360E-004
3.0307570E-001	-1.520456664410282E-004
3.0408767E-001	-1.544828565063956E-004
3.0509216E-001	-1.500055370276712E-004
3.0613175E-001	-1.495907883379585E-004
3.0712038E-001	-1.480326149874143E-004
3.0813876E-001	-1.450887118631767E-004
3.0913058E-001	-1.489142913379100E-004
3.1009758E-001	-1.304161084950406E-004
3.1107071E-001	-1.439841901995146E-004
3.1214419E-001	-1.403292885587210E-004
3.1311482E-001	-1.413807474222034E-004
3.1411517E-001	-1.398694437059565E-004
3.1514519E-001	-1.418131849106881E-004
3.1613699E-001	-1.368848598275458E-004
3.1716913E-001	-1.348465096882019E-004
3.1810790E-001	-1.345785469971535E-004
3.1919625E-001	-1.325003924566516E-004
3.2009688E-001	-1.318521867506523E-004
3.2111734E-001	-1.311641885892970E-004
3.2212719E-001	-1.306291670775611E-004
3.2318369E-001	-1.247802747962447E-004
3.2416067E-001	-1.280310332710932E-004
3.2511646E-001	-1.204762777607328E-004
3.2615811E-001	-1.216594965427472E-004
3.2715315E-001	-1.180479315579944E-004
3.2811952E-001	-1.209759194874416E-004
3.2917705E-001	-1.152578975020587E-004
3.3014879E-001	-1.218416715451391E-004
3.3114481E-001	-1.157159739272450E-004
3.3216426E-001	-1.177631836052724E-004
3.3317941E-001	-1.125881330605373E-004
3.3418292E-001	-1.163022806487390E-004
3.3513334E-001	-1.127950634452670E-004
3.3615696E-001	-1.146998925298545E-004
3.3711594E-001	-1.113270867673715E-004
3.3819684E-001	-1.123502467470258E-004
3.3914521E-001	-1.080966634374489E-004
3.4015822E-001	-1.102977403451490E-004
3.4110332E-001	-1.095186477723721E-004
3.4215036E-001	-1.072167651806741E-004
3.4310716E-001	-1.059778278573729E-004
3.4416270E-001	-1.072273714899864E-004
3.4517354E-001	-1.042551672219985E-004
3.4607732E-001	-1.038775652975548E-004
3.4712222E-001	-1.030914051654010E-004
3.4813845E-001	-1.019860051919683E-004
3.4907833E-001	-1.011008013986410E-004
3.5010722E-001	-9.597792577251433E-005
3.5112986E-001	-9.635110743191596E-005
3.5213968E-001	-9.314013200878457E-005
3.5317814E-001	-9.353188855598660E-005
3.5414138E-001	-8.783420997124662E-005
3.5512257E-001	-8.948346882162498E-005
3.5616216E-001	-8.632555738694340E-005
3.5714972E-001	-8.656343659257330E-005
3.5815638E-001	-8.563932409089137E-005
3.5916522E-001	-8.166253182887795E-005
3.6013049E-001	-8.555973163184809E-005
3.6113298E-001	-7.862577219874790E-005
3.6211097E-001	-8.058365640629820E-005
3.6317810E-001	-7.707378785681818E-005
3.6413917E-001	-7.754601500763343E-005
3.6514264E-001	-7.746553892534107E-005
3.6619392E-001	-7.424749450122035E-005
3.6715919E-001	-7.572607832410463E-005
3.6815524E-001	-6.492968599063406E-005
3.6910465E-001	-7.700038326695515E-005
3.7016752E-001	-7.250626865840082E-005
3.7116787E-001	-7.714364452877172E-005
3.7217134E-001	-6.882925896513196E-005
3.7314835E-001	-7.193942032499316E-005
3.7416136E-001	-6.749923939095264E-005
3.7512878E-001	-7.014070956835720E-005
3.7609410E-001	-6.828628737388801E-005
3.7720895E-001	-6.191651674214427E-005
3.7817430E-001	-6.432895063410442E-005
3.7913111E-001	-6.042555332502145E-005
3.8014731E-001	-6.340925608583326E-005
3.8117734E-001	-5.912913788602052E-005
3.8212779E-001	-5.960932490249116E-005
3.8311115E-001	-5.838100274660149E-005
3.8411674E-001	-5.785659926497511E-005
3.8513726E-001	-5.400537995904452E-005
3.8614389E-001	-5.506391085516619E-005
3.8715479E-001	-5.429808960381410E-005
3.8810739E-001	-5.368967836005844E-005
3.8915330E-001	-5.463324910061183E-005
3.9014089E-001	-5.014177956120917E-005
3.9116558E-001	-5.298929468880128E-005
3.9216268E-001	-4.825375838714123E-005
3.9314184E-001	-5.319445807888028E-005
3.9416012E-001	-4.815382590884872E-005
3.9519125E-001	-5.144084913726782E-005
3.9613214E-001	-4.160277274757455E-005
3.9712816E-001	-4.569541516730164E-005
3.9816988E-001	-4.313530475820308E-005
3.9910015E-001	-3.932653278345310E-005
4.0016842E-001	-3.794168366392592E-005
4.0115383E-001	-3.415590354677929E-005
4.0216267E-001	-3.209720409300435E-005
4.0318099E-001	-3.067609935511772E-005
4.0415052E-001	-3.132695861577750E-005
4.0521982E-001	-2.332296861536532E-005
4.0618721E-001	-2.845733872547385E-005
4.0718016E-001	-2.229361987855026E-005
4.0814328E-001	-2.311338415077966E-005
4.0913725E-001	-1.768542174810739E-005
4.1014606E-001	-2.028709345106944E-005
4.1120040E-001	-1.633771503782732E-005
4.1214880E-001	-1.675423064642027E-005
4.1316605E-001	-1.300647652370388E-005
4.1421944E-001	-1.212304019235523E-005
4.1516986E-001	-1.045432582537207E-005
4.1623589E-001	-6.362569864945964E-006
4.1718218E-001	-8.324877622713065E-006
4.1816548E-001	-2.960586973996669E-006
4.1917858E-001	-3.302820238736293E-006
4.2016611E-001	-1.136229236130297E-006
4.2113352E-001	5.696243654541365E-007
4.2215294E-001	2.819335987583097E-006
4.2315429E-001	5.098234570905639E-006
4.2411438E-001	5.039869864849827E-006
4.2513686E-001	1.028300775689976E-005
4.2613080E-001	7.912699677949477E-006
4.2712694E-001	1.095597897698365E-005
4.2814735E-001	1.016362594283589E-005
4.2917529E-001	1.486910025880498E-005
4.3014482E-001	1.632911358982904E-005
4.3112397E-001	1.984163652461281E-005
4.3215710E-001	2.659785207252219E-005
4.3315950E-001	2.567904504028712E-005
4.3411210E-001	3.217526774138924E-005
4.3520576E-001	3.658272523793848E-005
4.3613079E-001	3.528984580785586E-005
4.3708760E-001	4.131737723630157E-005
4.3814939E-001	4.441958035409732E-005
4.3916884E-001	4.856881437308314E-005
4.4016802E-001	5.257655635422981E-005
4.4116420E-001	5.733685803358912E-005
4.4214535E-001	6.155241390517758E-005
4.4318816E-001	6.456618589980819E-005
4.4413537E-001	7.119417005993782E-005
4.4520459E-001	7.464302343862563E-005
4.4619012E-001	7.797514707341691E-005
4.4714373E-001	8.753908145327683E-005
4.4820029E-001	8.710753605593391E-005
4.4914010E-001	9.251516131946057E-005
4.5019451E-001	9.994699265389594E-005
4.5112696E-001	1.043747905929613E-004
4.5216969E-001	1.141536131916447E-004
4.5312014E-001	1.160301458236452E-004
4.5415542E-001	1.248512405709336E-004
4.5517382E-001	1.294620919654538E-004
4.5616350E-001	1.327031408303965E-004
4.5715210E-001	1.432530943803710E-004
4.5816201E-001	1.482592381291982E-004
4.5912516E-001	1.585483052555978E-004
4.6021780E-001	1.674551940532686E-004
4.6116719E-001	1.717689144634782E-004
4.6218124E-001	1.829485080469978E-004
4.6316993E-001	1.923789055366695E-004
4.6415114E-001	1.996489100343341E-004
4.6516848E-001	2.108895223753081E-004
4.6614960E-001	2.166756276614666E-004
4.6719554E-001	2.282655446050642E-004
4.6817043E-001	2.398563414500493E-004
4.6917176E-001	2.464250657365288E-004
4.7016791E-001	2.588382923312972E-004
4.7121590E-001	2.710047775862133E-004
4.7219926E-001	2.793262507086391E-004
4.7317836E-001	2.920418975362639E-004
4.7418073E-001	3.080543313621511E-004
4.7514820E-001	3.165013296969246E-004
4.7612414E-001	3.313128537393420E-004
4.7717115E-001	3.475710939034754E-004
4.7817671E-001	3.572075336756428E-004
4.7921732E-001	3.724390885003629E-004
4.8019856E-001	3.909196568909275E-004
4.8118612E-001	4.029243105429091E-004
4.8218969E-001	4.188933841457283E-004
4.8321009E-001	4.411941866288138E-004
4.8418263E-001	4.586495838508941E-004
4.8517358E-001	4.674267005258196E-004
4.8619932E-001	4.913351570697468E-004
4.8718271E-001	5.065764517490200E-004
4.8821378E-001	5.315470722911811E-004
4.8916954E-001	5.540273982660455E-004
4.9019951E-001	5.746214484234867E-004
4.9118495E-001	6.003021609457294E-004
4.9218529E-001	6.265912533712668E-004
4.9320891E-001	6.482235250283973E-004
4.9420187E-001	6.789156467069321E-004
4.9518514E-001	7.053426908593501E-004
4.9619076E-001	7.309057846719572E-004
4.9714020E-001	7.583542427609131E-004
4.9816275E-001	7.892868954210517E-004
4.9919283E-001	8.183359633322776E-004
5.0019407E-001	8.493349452894303E-004
5.0118381E-001	8.825651330981715E-004
5.0219047E-001	9.162436216582966E-004
5.0320035E-001	9.465678416139198E-004
5.0414127E-001	9.864188818937726E-004
5.0515962E-001	1.024577382749053E-003
5.0618011E-001	1.059183459852245E-003
5.0719208E-001	1.104446602564880E-003
5.0818378E-001	1.142906641133680E-003
5.0921392E-001	1.185475163917242E-003
5.1016432E-001	1.233699920501548E-003
5.1124215E-001	1.278311240033268E-003
5.1217979E-001	1.324856566902285E-003
5.1316315E-001	1.372817786533335E-003
5.1419640E-001	1.424497507691240E-003
5.1520830E-001	1.475870419199058E-003
5.1621932E-001	1.532575810819660E-003
5.1719195E-001	1.583896469027324E-003
5.1821035E-001	1.646135898732207E-003
5.1919156E-001	1.706575642755425E-003
5.2019179E-001	1.764346546426380E-003
5.2119851E-001	1.833980662720732E-003
5.2221155E-001	1.894942306535079E-003
5.2322996E-001	1.963667272624058E-003
5.2423763E-001	2.035155857407111E-003
5.2523267E-001	2.105286905134569E-003
5.2619696E-001	2.174125116855274E-003
5.2718234E-001	2.249333044144607E-003
5.2821028E-001	2.328348120701996E-003
5.2920526E-001	2.412160551506934E-003
5.3017050E-001	2.489460909095617E-003
5.3120804E-001	2.580974783389443E-003
5.3221357E-001	2.670246308197323E-003
5.3321713E-001	2.754719228202415E-003
5.3417498E-001	2.851341164286073E-003
5.3518707E-001	2.942318166686983E-003
5.3619683E-001	3.041020909020323E-003
5.3720993E-001	3.147529349411760E-003
5.3813165E-001	3.246284291081897E-003
5.3918397E-001	3.347210110102126E-003
5.4020554E-001	3.461253907112757E-003
5.4117614E-001	3.567494581147912E-003
5.4205704E-001	3.701103477399395E-003
5.4248846E-001	3.565469814930111E-003
5.4304624E-001	3.767382786867939E-003
5.4403383E-001	3.893264362381566E-003
5.4502571E-001	4.015310062540162E-003
5.4608750E-001	4.138645556748893E-003
5.4710054E-001	4.277369765784689E-003
5.4808599E-001	4.403115119203008E-003
5.4908413E-001	4.536154289477658E-003
5.5008978E-001	4.677461447297708E-003
5.5106777E-001	4.814355595347798E-003
5.5209041E-001	4.955130463511329E-003
5.5310881E-001	5.106136270316933E-003
5.5409741E-001	5.254550477628912E-003
5.5510306E-001	5.415938843927704E-003
5.5610859E-001	5.567263339697936E-003
5.5712485E-001	5.728853571781670E-003
5.5810714E-001	5.892965028275930E-003
5.5909264E-001	6.056413885946507E-003
5.6012577E-001	6.230472479526523E-003
5.6109214E-001	6.403381034841837E-003
5.6207019E-001	6.578421772751995E-003
5.6307262E-001	6.765845078916755E-003
5.6407505E-001	6.945885816902669E-003
5.6507856E-001	7.124401620078280E-003
5.6608629E-001	7.325572525991871E-003
5.6711417E-001	7.518316604950497E-003
5.6808579E-001	7.717013498121456E-003
5.6910419E-001	7.919367490911954E-003
5.7012141E-001	8.123758360145276E-003
5.7111120E-001	8.333100657586745E-003
5.7209027E-001	8.545670490194557E-003
5.7312232E-001	8.763346099941519E-003
5.7410574E-001	8.978006318405611E-003
5.7512939E-001	9.199354556686662E-003
5.7605755E-001	9.429941106645856E-003
5.7709289E-001	9.648196311092004E-003
5.7882756E-001	9.984050313069065E-003
5.8069742E-001	1.041214529201778E-002
5.8166808E-001	1.064881234358638E-002
5.8266932E-001	1.090318152920294E-002
5.8360076E-001	1.115132592531160E-002
5.8469969E-001	1.140018627807475E-002
5.8567452E-001	1.166376807021963E-002
5.8667058E-001	1.192036464878282E-002
5.8766663E-001	1.217344226865360E-002
5.8865958E-001	1.245058823648529E-002
5.8966625E-001	1.270722959210012E-002
5.9064853E-001	1.297448978342197E-002
5.9164250E-001	1.325394192746092E-002
5.9268093E-001	1.352595931691923E-002
5.9367180E-001	1.380884312675337E-002
5.9466350E-001	1.409062091261153E-002
5.9569257E-001	1.436893309599127E-002
5.9666419E-001	1.465881911442712E-002
5.9764755E-001	1.494665404122014E-002
5.9862763E-001	1.524041294518010E-002
5.9970433E-001	1.553952949045481E-002
6.0068882E-001	1.582629464974170E-002
6.0172826E-001	1.613253717207254E-002
6.0271269E-001	1.643074349461440E-002
6.0366422E-001	1.672693489429861E-002
6.0468149E-001	1.704251509444371E-002
6.0568613E-001	1.734924345510094E-002
6.0672671E-001	1.766654060985376E-002
6.0772282E-001	1.798586866061669E-002
6.0867000E-001	1.829055562848236E-002
6.0971910E-001	1.862040755642946E-002
6.1067915E-001	1.893909108993184E-002
6.1172611E-001	1.925932255431290E-002
6.1271584E-001	1.958797157567463E-002
6.1373210E-001	1.990486786881879E-002
6.1467719E-001	2.024298547864127E-002
6.1572850E-001	2.055540119019710E-002
6.1668944E-001	2.087870025489899E-002
6.1770892E-001	2.122347663357183E-002
6.1872512E-001	2.154809390130047E-002
6.1969900E-001	2.187986296323493E-002
6.2067378E-001	2.222506276060215E-002
6.2165385E-001	2.255573682487016E-002
6.2267119E-001	2.288937271805486E-002
6.2365562E-001	2.323108018026690E-002
6.2466973E-001	2.357110717922398E-002
6.2571555E-001	2.390875787306063E-002
6.2671274E-001	2.425409865908383E-002
6.2772900E-001	2.459263166141085E-002
6.2867731E-001	2.493089248633228E-002
6.2966913E-001	2.527008887005244E-002
6.3072890E-001	2.562077174823378E-002
6.3170266E-001	2.597348777473803E-002
6.3268065E-001	2.630487672771176E-002
6.3367671E-001	2.666349920683489E-002
6.3468879E-001	2.700712407790384E-002
6.3571346E-001	2.735308501804767E-002
6.3670105E-001	2.770481958901261E-002
6.3773423E-001	2.805256714539905E-002
6.3871753E-001	2.839141041396132E-002
6.3973910E-001	2.875034128212276E-002
6.4070219E-001	2.909514412911246E-002
6.4171535E-001	2.943389827851217E-002
6.4269435E-001	2.978039784486297E-002
6.4366394E-001	3.012904737746180E-002
6.4470243E-001	3.047636045084789E-002
6.4572394E-001	3.081834016322532E-002
6.4670950E-001	3.117085333279740E-002
6.4774048E-001	3.151189601178184E-002
6.4868033E-001	3.185670048696918E-002
6.4969659E-001	3.220623318662141E-002
6.5071803E-001	3.255366932393786E-002
6.5171850E-001	3.288785135696859E-002
6.5272504E-001	3.323819713679976E-002
6.5374446E-001	3.357054307707590E-002
6.5471828E-001	3.390493948568796E-002
6.5571004E-001	3.424136822124846E-002
6.5669769E-001	3.458234319178821E-002
6.5768307E-001	3.491631406682771E-002
6.5865064E-001	3.525109079782851E-002
6.5969539E-001	3.558407580971501E-002
6.6069889E-001	3.592006432720368E-002
6.6169608E-001	3.623661124988276E-002
6.6271544E-001	3.657257783278411E-002
6.6370308E-001	3.689356903649045E-002
6.6468632E-001	3.721317568043664E-002
6.6573763E-001	3.753462653063877E-002
6.6674960E-001	3.784879029262822E-002
6.6767448E-001	3.815552072612471E-002
6.6868657E-001	3.847433892466756E-002
6.6967201E-001	3.877822807731324E-002
6.7073494E-001	3.909128964490582E-002
6.7169172E-001	3.938924620807593E-002
6.7273760E-001	3.969544826153049E-002
6.7371041E-001	3.998794065167530E-002
6.7469794E-001	4.028945546855955E-002
6.7571002E-001	4.058277838501256E-002
6.7671764E-001	4.086978350662530E-002
6.7773175E-001	4.114837042935604E-002
6.7868757E-001	4.143562217682817E-002
6.7976838E-001	4.170559677812802E-002
6.8028462E-001	4.232134386256814E-002
6.8057591E-001	4.192772507667542E-002